"Vertical Reflections"					
"Floor Reflection"		"Ceiling Reflection"		"Total Vertical Reflection"	
"Frequency [Hz]"	"Sound Pessure Level [dB]  / [2.83V 1m] "	"Frequency [Hz]"	"Sound Pessure Level [dB]  / [2.83V 1m] "	"Frequency [Hz]"	"Sound Pessure Level [dB]  / [2.83V 1m] "
20.5078	62.5871	20.5078	61.7371	20.5078	62.1829
21.9727	61.4732	21.9727	61.9525	21.9727	61.7195
23.4375	58.4648	23.4375	56.3661	23.4375	57.541
24.9023	61.8339	24.9023	58.4962	24.9023	60.4781
26.3672	66.5546	26.3672	63.8914	26.3672	65.424
27.832	68.7658	27.832	66.2051	27.832	67.6715
29.2969	72.0337	29.2969	69.0767	29.2969	70.8021
30.7617	76.1175	30.7617	73.9814	30.7617	75.1795
32.2266	79.1896	32.2266	77.2532	32.2266	78.3284
33.6914	82.277	33.6914	80.0496	33.6914	81.3046
35.1562	85.3795	35.1562	83.5042	35.1562	84.5423
36.6211	88.3101	36.6211	86.5263	36.6211	87.5092
38.0859	91.1095	38.0859	89.3997	38.0859	90.3382
39.5508	93.5141	39.5508	91.887	39.5508	92.7763
41.0156	95.3348	41.0156	93.7374	41.0156	94.6092
42.4805	96.8917	42.4805	95.3291	42.4805	96.1803
43.9453	97.9517	43.9453	96.4437	43.9453	97.2628
45.4102	98.5811	45.4102	97.1128	45.4102	97.9087
46.875	99.0181	46.875	97.5723	46.875	98.3551
48.3398	99.2576	48.3398	97.8512	48.3398	98.6111
51.2695	99.3461	51.2695	97.9724	51.2695	98.7134
52.7344	99.263	52.7344	97.9347	52.7344	98.6494
54.1992	99.192	54.1992	97.8846	54.1992	98.5873
55.6641	99.1521	55.6641	97.875	55.6641	98.5603
58.5938	98.9543	58.5938	97.7014	58.5938	98.3729
60.0586	98.8728	60.0586	97.6176	60.0586	98.2904
62.9883	98.7122	62.9883	97.475	62.9883	98.1375
64.4531	98.655	64.4531	97.4161	64.4531	98.0796
67.3828	98.6412	67.3828	97.4029	67.3828	98.066
68.8477	98.6556	68.8477	97.4258	68.8477	98.0841
71.7773	98.6744	71.7773	97.4967	71.7773	98.1253
74.707	98.6766	74.707	97.5105	74.707	98.1326
77.6367	98.6887	77.6367	97.5102	77.6367	98.1393
79.1016	98.7179	79.1016	97.5333	79.1016	98.1659
82.0312	98.8488	82.0312	97.6602	82.0312	98.2951
84.9609	98.9587	84.9609	97.7617	84.9609	98.4013
87.8906	98.965	87.8906	97.7844	87.8906	98.4147
90.8203	99.0883	90.8203	97.9007	90.8203	98.535
95.2148	99.2579	95.2148	98.0698	95.2148	98.7044
98.1445	99.3917	98.1445	98.2588	98.1445	98.8621
101.074	99.4628	101.074	98.294	101.074	98.9176
105.469	99.5082	105.469	98.3058	105.469	98.9485
108.398	99.5349	108.398	98.3517	108.398	98.9835
112.793	99.7821	112.793	98.6279	112.793	99.2433
117.188	99.8811	117.188	98.744	117.188	99.3497
120.117	99.9664	120.117	98.7327	120.117	99.3932
124.512	100.262	124.512	98.87	124.512	99.6217
128.906	100.289	128.906	98.9952	128.906	99.6899
133.301	100.053	133.301	98.7675	133.301	99.4575
139.16	99.8277	139.16	98.29	139.16	99.1266
143.555	99.9965	143.555	98.3259	143.555	99.241
147.949	100.14	147.949	98.5284	147.949	99.4084
153.809	100.037	153.809	98.6292	153.809	99.3902
159.668	100.064	159.668	98.8319	159.668	99.4914
165.527	99.9686	165.527	98.4628	165.527	99.2806
171.387	99.6957	171.387	97.9854	171.387	98.9242
177.246	99.6284	177.246	98.0215	177.246	98.8988
183.105	99.9593	183.105	97.7776	183.105	99.0041
188.965	99.4488	188.965	97.8853	188.965	98.737
196.289	99.1358	196.289	97.3458	196.289	98.3324
203.613	99.2931	203.613	97.5077	203.613	98.4915
210.938	98.9698	210.938	97.9304	210.938	98.4811
218.262	99.3022	218.262	97.8333	218.262	98.6295
225.586	99.5594	225.586	97.862	225.586	98.7931
232.91	99.5989	232.91	98.0017	232.91	98.8733
241.699	99.8078	241.699	98.1855	241.699	99.072
250.488	100.104	250.488	98.4805	250.488	99.3679
259.277	100.123	259.277	98.0214	259.277	99.1983
268.066	99.9528	268.066	98.1469	268.066	99.143
276.855	99.5856	276.855	98.1634	276.855	98.9325
287.109	99.4622	287.109	97.8574	287.109	98.7335
297.363	100.145	297.363	98.2134	297.363	99.2856
307.617	100.106	307.617	98.5093	307.617	99.3808
319.336	100.328	319.336	98.4947	319.336	99.5075
329.59	100.124	329.59	98.4633	329.59	99.3724
341.309	100.541	341.309	98.5258	341.309	99.649
353.027	100.653	353.027	98.1666	353.027	99.5853
366.211	99.9576	366.211	97.879	366.211	99.0415
379.395	100.335	379.395	98.2657	379.395	99.4222
392.578	99.2547	392.578	97.1547	392.578	98.3304
405.762	99.3399	405.762	97.3002	405.762	98.4387
420.41	99.2696	420.41	97.8382	420.41	98.6126
435.059	98.849	435.059	97.0025	435.059	98.0231
451.172	99.3284	451.172	97.0722	451.172	98.3452
465.82	98.915	465.82	97.1506	465.82	98.1218
483.398	98.9546	483.398	97.5668	483.398	98.3159
499.512	99.6679	499.512	96.9814	499.512	98.5292
517.09	98.9295	517.09	96.8095	517.09	97.9976
536.133	99.1196	536.133	95.0852	536.133	97.5549
555.176	99.0766	555.176	95.6957	555.176	97.7072
574.219	99.3574	574.219	95.4154	574.219	97.8191
594.727	98.779	594.727	95.5206	594.727	97.4485
615.234	98.9101	615.234	94.7048	615.234	97.2977
637.207	100.231	637.207	90.0346	637.207	97.617
659.18	99.7066	659.18	91.1855	659.18	97.2675
682.617	98.1413	682.617	95.2374	682.617	96.9277
707.52	98.9517	707.52	96.7844	707.52	98.0019
732.422	98.8745	732.422	97.1027	732.422	98.0783
757.324	99.2563	757.324	96.214	757.324	97.9962
785.156	98.1468	785.156	94.9066	785.156	96.8221
811.523	97.2093	811.523	94.2023	811.523	95.961
840.82	97.054	840.82	94.5681	840.82	95.9866
870.117	96.5021	870.117	96.0258	870.117	96.2705
900.879	93.9154	900.879	99.2787	900.879	97.3772
933.105	95.4721	933.105	101.022	933.105	99.0793
965.332	98.0674	965.332	100.065	965.332	99.1802
1,000.49	98.9937	1,000.49	97.8697	1,000.49	98.468
1,035.64	98.7489	1,035.64	96.2283	1,035.64	97.669
1,072.27	99.3701	1,072.27	91.8944	1,072.27	97.0743
1,108.89	98.8624	1,108.89	91.5441	1,108.89	96.5909
1,148.44	97.8146	1,148.44	91.2785	1,148.44	95.675
1,189.45	97.9216	1,189.45	92.8407	1,189.45	96.0853
1,230.47	98.0359	1,230.47	92.5502	1,230.47	96.1071
1,274.41	98.4833	1,274.41	91.2781	1,274.41	96.2297
1,319.82	98.5007	1,319.82	91.2533	1,319.82	96.2403
1,366.7	98.8613	1,366.7	92.2939	1,366.7	96.7161
1,413.57	98.4071	1,413.57	91.8543	1,413.57	96.2645
1,463.38	98.374	1,463.38	90.8101	1,463.38	96.065
1,516.11	96.7825	1,516.11	87.6085	1,516.11	94.2681
1,568.85	96.7875	1,568.85	89.0558	1,568.85	94.4539
1,624.51	96.9415	1,624.51	87.7329	1,624.51	94.4233
1,681.64	96.7027	1,681.64	87.6272	1,681.64	94.199
1,741.7	95.7349	1,741.7	91.2209	1,741.7	94.0397
1,803.22	96.9372	1,803.22	88.9645	1,803.22	94.5696
1,866.21	97.0313	1,866.21	93.1566	1,866.21	95.5125
1,932.13	97.2242	1,932.13	94.4701	1,932.13	96.0619
1,999.51	92.7439	1,999.51	95.1529	1,999.51	94.1133
2,069.82	95.4458	2,069.82	94.0678	2,069.82	94.8112
2,143.07	94.6132	2,143.07	96.1326	2,143.07	95.439
2,219.24	91.2626	2,219.24	97.3067	2,219.24	95.2608
2,296.88	94.5789	2,296.88	97.801	2,296.88	96.4821
2,378.91	94.5695	2,378.91	96.2404	2,378.91	95.4848
2,462.4	95.5523	2,462.4	94.7372	2,462.4	95.1639
2,548.83	96.2267	2,548.83	95.3397	2,548.83	95.8058
2,639.65	97.0725	2,639.65	95.3759	2,639.65	96.3066
2,731.93	95.7877	2,731.93	94.8163	2,731.93	95.3291
2,828.61	95.1278	2,828.61	95.0322	2,828.61	95.0803
2,928.22	95.9318	2,928.22	96.0974	2,928.22	96.0154
3,030.76	97.2311	3,030.76	95.5572	3,030.76	96.4743
3,137.7	97.5772	3,137.7	95.6378	3,137.7	96.7149
3,249.02	98.0628	3,249.02	95.5821	3,249.02	96.9972
3,363.28	97.9065	3,363.28	95.3897	3,363.28	96.8279
3,481.93	98.5276	3,481.93	95.6002	3,481.93	97.306
3,604.98	98.4927	3,604.98	94.3612	3,604.98	96.9008
3,732.42	97.6837	3,732.42	95.1252	3,732.42	96.5902
3,864.26	97.9281	3,864.26	95.0092	3,864.26	96.7094
4,000.49	97.3198	4,000.49	94.0778	4,000.49	95.9946
4,141.11	97.7506	4,141.11	94.1338	4,141.11	96.3083
4,287.6	97.679	4,287.6	92.5992	4,287.6	95.843
4,438.48	97.3133	4,438.48	93.3104	4,438.48	95.7576
4,595.21	97.3874	4,595.21	92.6442	4,595.21	95.6335
4,756.35	97.6804	4,756.35	93.4586	4,756.35	96.0635
4,924.8	98.1373	4,924.8	92.4391	4,924.8	96.1626
5,097.66	98.664	5,097.66	92.354	5,097.66	96.5664
5,277.83	98.2441	5,277.83	92.1439	5,277.83	96.1871
5,463.87	98.3276	5,463.87	92.0712	5,463.87	96.2402
5,657.23	98.8337	5,657.23	92.1449	5,657.23	96.6668
5,856.45	98.4169	5,856.45	91.828	5,856.45	96.2678
6,062.99	97.1495	6,062.99	91.5728	6,062.99	95.2008
6,276.86	96.5898	6,276.86	92.0949	6,276.86	94.8996
6,498.05	96.2235	6,498.05	92.4514	6,498.05	94.7347
6,726.56	95.3541	6,726.56	92.1722	6,726.56	94.0483
6,963.87	95.319	6,963.87	92.4428	6,963.87	94.1148
7,209.96	95.1498	7,209.96	92.3197	7,209.96	93.9613
7,464.84	95.9915	7,464.84	92.35	7,464.84	94.5417
7,727.05	97.215	7,727.05	92.2382	7,727.05	95.4036
7,999.51	98.322	7,999.51	92.3024	7,999.51	96.281
8,282.23	97.1825	8,282.23	92.1785	8,282.23	95.3646
8,573.73	96.205	8,573.73	92.6762	8,573.73	94.7896
8,876.95	97.3591	8,876.95	92.7525	8,876.95	95.6399
9,188.96	97.2027	9,188.96	92.8594	9,188.96	95.5528
9,514.16	96.9059	9,514.16	93.1517	9,514.16	95.4224
9,849.61	96.8672	9,849.61	93.0162	9,849.61	95.3553
10,196.8	97.5023	10,196.8	93.0496	10,196.8	95.8232
10,555.7	97.373	10,555.7	92.9097	10,555.7	95.6911
10,927.7	97.7581	10,927.7	92.6598	10,927.7	95.9177
11,313	98.106	11,313	92.9785	11,313	96.2587
11,712.9	97.7042	11,712.9	92.816	11,712.9	95.9143
12,126	98.0368	12,126	92.9273	12,126	96.1938
12,553.7	98.1578	12,553.7	92.6138	12,553.7	96.2162
12,996.1	97.4271	12,996.1	92.4003	12,996.1	95.6037
13,454.6	97.8561	13,454.6	91.8177	13,454.6	95.8113
13,929.2	97.8857	13,929.2	91.2138	13,929.2	95.7218
14,419.9	97.832	14,419.9	90.4863	14,419.9	95.5562
14,928.2	97.9375	14,928.2	89.8447	14,928.2	95.5535
15,455.6	97.7734	15,455.6	89.0551	15,455.6	95.3105
16,000.5	97.3957	16,000.5	88.1275	16,000.5	94.8712
16,564.5	96.495	16,564.5	86.614	16,564.5	93.9096
17,148.9	95.7064	17,148.9	84.2568	17,148.9	92.9966
17,752.4	94.6799	17,752.4	82.1937	17,752.4	91.9079
18,379.4	93.5037	18,379.4	80.3466	18,379.4	90.6985
19,026.9	92.0997	19,026.9	78.2463	19,026.9	89.2646
19,697.8	90.6844	19,697.8	76.1401	19,697.8	87.824
19,999.5	90.1572	19,999.5	76.0105	19,999.5	87.3109
