"Vertical Reflections"					
"Floor Reflection"		"Ceiling Reflection"		"Total Vertical Reflection"	
"Frequency [Hz]"	"Sound Pessure Level [dB]  / [2.83V 1m] "	"Frequency [Hz]"	"Sound Pessure Level [dB]  / [2.83V 1m] "	"Frequency [Hz]"	"Sound Pessure Level [dB]  / [2.83V 1m] "
20.5078	67.3278	20.5078	65.6434	20.5078	66.5667
21.9727	68.2792	21.9727	66.9044	21.9727	67.646
23.4375	72.378	23.4375	71.1081	23.4375	71.7893
24.9023	75.0388	24.9023	73.4453	24.9023	74.3147
26.3672	77.7832	26.3672	76.1503	26.3672	77.043
27.832	80.5563	27.832	78.7077	27.832	79.7296
29.2969	82.3313	29.2969	80.4716	29.2969	81.5002
30.7617	83.7215	30.7617	81.592	30.7617	82.786
32.2266	83.9976	32.2266	81.7815	32.2266	83.0294
33.6914	84.4037	33.6914	82.1907	33.6914	83.4367
35.1562	84.6365	35.1562	82.3276	35.1562	83.6337
36.6211	84.8306	36.6211	82.4681	36.6211	83.808
38.0859	84.9888	38.0859	82.5554	38.0859	83.9404
39.5508	85.1101	39.5508	82.6258	39.5508	84.0432
41.0156	85.3114	41.0156	82.7936	41.0156	84.2325
42.4805	85.5654	42.4805	82.9079	42.4805	84.4368
43.9453	85.693	43.9453	83.0264	43.9453	84.5612
45.4102	86.1128	45.4102	83.3659	45.4102	84.953
46.875	86.3668	46.875	83.5956	46.875	85.1986
48.3398	86.6192	48.3398	83.8284	48.3398	85.4442
51.2695	87.1358	51.2695	84.321	51.2695	85.9526
52.7344	87.4049	52.7344	84.5786	52.7344	86.2177
54.1992	87.7809	54.1992	84.9188	54.1992	86.5815
55.6641	88.0759	55.6641	85.2148	55.6641	86.8768
58.5938	88.6461	58.5938	85.7285	58.5938	87.4279
60.0586	88.8612	60.0586	85.8887	60.0586	87.6244
62.9883	89.367	62.9883	86.3096	62.9883	88.102
64.4531	89.5784	64.4531	86.4758	64.4531	88.2985
67.3828	89.9847	67.3828	86.8294	67.3828	88.6875
68.8477	90.2242	68.8477	87.0259	68.8477	88.9131
71.7773	90.7511	71.7773	87.4611	71.7773	89.4105
74.707	91.2211	74.707	87.919	74.707	89.8766
77.6367	91.5716	77.6367	88.19	77.6367	90.2019
79.1016	91.6387	79.1016	88.2087	79.1016	90.2539
82.0312	91.8112	82.0312	88.3999	82.0312	90.4322
84.9609	91.974	84.9609	88.5862	84.9609	90.6024
87.8906	91.9622	87.8906	88.526	87.8906	90.5755
90.8203	91.9058	90.8203	88.3254	90.8203	90.4745
95.2148	92.0501	95.2148	88.2414	95.2148	90.5505
98.1445	92.2804	98.1445	88.6024	98.1445	90.8196
101.074	91.928	101.074	88.1009	101.074	90.423
105.469	92.0831	105.469	87.9272	105.469	90.4844
108.398	92.4415	108.398	88.2498	108.398	90.8329
112.793	92.5382	112.793	88.4663	112.793	90.963
117.188	92.4789	117.188	88.5253	117.188	90.9373
120.117	92.5964	120.117	88.6011	120.117	91.0428
124.512	92.6155	124.512	88.7783	124.512	91.1076
128.906	92.7711	128.906	88.9594	128.906	91.2707
133.301	92.5846	133.301	88.9956	133.301	91.1507
139.16	92.05	139.16	88.6381	139.16	90.6709
143.555	91.7968	143.555	88.3387	143.555	90.4032
147.949	91.7036	147.949	88.0288	147.949	90.2438
153.809	91.9028	153.809	87.6919	153.809	90.2889
159.668	92.6565	159.668	88.1038	159.668	90.9512
165.527	92.6355	165.527	88.5464	165.527	91.0554
171.387	92.2349	171.387	88.7492	171.387	90.8327
177.246	91.877	177.246	88.708	177.246	90.5754
183.105	91.4549	183.105	88.265	183.105	90.1464
188.965	91.8801	188.965	88.4068	188.965	90.4818
196.289	92.9917	196.289	89.2886	196.289	91.5235
203.613	92.4604	203.613	89.5056	203.613	91.2296
210.938	91.7217	210.938	89.6106	210.938	90.7932
218.262	91.909	218.262	89.5665	218.262	90.8938
225.586	91.6682	225.586	89.5861	225.586	90.7508
232.91	90.9442	232.91	89.4902	232.91	90.2778
241.699	90.6231	241.699	89.7682	241.699	90.2167
250.488	90.132	250.488	89.4648	250.488	89.8112
259.277	90.8202	259.277	89.465	259.277	90.1953
268.066	91.0049	268.066	89.6145	268.066	90.3651
276.855	89.5338	276.855	89.2749	276.855	89.4062
287.109	89.4751	287.109	89.4642	287.109	89.4697
297.363	88.1995	297.363	88.7264	297.363	88.471
307.617	89.4037	307.617	88.3308	307.617	88.9003
319.336	87.9466	319.336	88.3433	319.336	88.1494
329.59	88.3936	329.59	88.4223	329.59	88.408
341.309	87.8696	341.309	87.5144	341.309	87.6956
353.027	88.9417	353.027	87.7201	353.027	88.3738
366.211	89.9856	366.211	88.4631	366.211	89.2908
379.395	90.2874	379.395	87.6839	379.395	89.1779
392.578	89.7756	392.578	88.6238	392.578	89.2378
405.762	89.6055	405.762	86.9342	405.762	88.4721
420.41	89.5916	420.41	87.4045	420.41	88.6343
435.059	89.2596	435.059	87.8349	435.059	88.6054
451.172	90.6672	451.172	87.7245	451.172	89.4405
465.82	92.6247	465.82	88.0598	465.82	90.9163
483.398	91.8852	483.398	88.0886	483.398	90.3892
499.512	92.2012	499.512	87.3466	499.512	90.4196
517.09	90.2319	517.09	87.6985	517.09	89.1474
536.133	90.9347	536.133	87.8376	536.133	89.6565
555.176	92.1911	555.176	88.1132	555.176	90.6142
574.219	93.4823	574.219	88.8787	574.219	91.7639
594.727	91.1453	594.727	87.9442	594.727	89.8332
615.234	91.0078	615.234	88.6155	615.234	89.9743
637.207	91.0992	637.207	87.721	637.207	89.7306
659.18	92.3927	659.18	88.8874	659.18	90.9845
682.617	91.393	682.617	89.0908	682.617	90.3927
707.52	90.2302	707.52	88.2036	707.52	89.3341
732.422	91.3485	732.422	88.106	732.422	90.0231
757.324	91.8116	757.324	88.5533	757.324	90.4811
785.156	91.4461	785.156	89.731	785.156	90.6727
811.523	90.9612	811.523	90.1184	811.523	90.5602
840.82	91.6973	840.82	88.8536	840.82	90.5041
870.117	89.8174	870.117	88.7714	870.117	89.3258
900.879	90.9139	900.879	90.1395	900.879	90.544
933.105	90.8931	933.105	89.5527	933.105	90.2744
965.332	89.2546	965.332	89.8558	965.332	89.5656
1,000.49	91.2314	1,000.49	90.1407	1,000.49	90.7202
1,035.64	90.3214	1,035.64	89.8585	1,035.64	90.0961
1,072.27	87.8001	1,072.27	89.2777	1,072.27	88.6015
1,108.89	89.7652	1,108.89	89.4577	1,108.89	89.6142
1,148.44	89.0011	1,148.44	88.9792	1,148.44	88.9902
1,189.45	90.4325	1,189.45	88.6571	1,189.45	89.6349
1,230.47	88.9188	1,230.47	88.9782	1,230.47	88.9486
1,274.41	89.7344	1,274.41	89.6076	1,274.41	89.6715
1,319.82	89.585	1,319.82	89.6012	1,319.82	89.5931
1,366.7	89.5959	1,366.7	89.324	1,366.7	89.4621
1,413.57	89.2087	1,413.57	88.4156	1,413.57	88.8302
1,463.38	88.6418	1,463.38	87.716	1,463.38	88.2035
1,516.11	88.0975	1,516.11	87.7213	1,516.11	87.9135
1,568.85	88.1153	1,568.85	87.0501	1,568.85	87.6153
1,624.51	87.7252	1,624.51	86.5215	1,624.51	87.1649
1,681.64	87.0094	1,681.64	86.5744	1,681.64	86.7973
1,741.7	86.2061	1,741.7	85.5266	1,741.7	85.8796
1,803.22	84.6366	1,803.22	84.8088	1,803.22	84.7236
1,866.21	84.9702	1,866.21	82.0729	1,866.21	83.7588
1,932.13	83.8805	1,932.13	81.2475	1,932.13	82.7605
1,999.51	83.0591	1,999.51	79.1607	1,999.51	81.5334
2,069.82	81.7233	2,069.82	78.6519	2,069.82	80.4536
2,143.07	81.7428	2,143.07	79.8741	2,143.07	80.9082
2,219.24	82.9282	2,219.24	80.3607	2,219.24	81.8315
2,296.88	82.3408	2,296.88	82.4949	2,296.88	82.4186
2,378.91	82.9564	2,378.91	83.4923	2,378.91	83.2326
2,462.4	82.8133	2,462.4	84.4486	2,462.4	83.7075
2,548.83	84.0373	2,548.83	85.5799	2,548.83	84.8767
2,639.65	85.6981	2,639.65	85.7192	2,639.65	85.7087
2,731.93	86.911	2,731.93	86.7833	2,731.93	86.8476
2,828.61	87.7275	2,828.61	87.2974	2,828.61	87.5178
2,928.22	88.231	2,928.22	87.2661	2,928.22	87.7753
3,030.76	89.641	3,030.76	87.7158	3,030.76	88.7842
3,137.7	89.9089	3,137.7	87.6489	3,137.7	88.9242
3,249.02	89.8459	3,249.02	87.5513	3,249.02	88.8484
3,363.28	90.3416	3,363.28	87.7101	3,363.28	89.2222
3,481.93	90.5187	3,481.93	87.1747	3,481.93	89.1609
3,604.98	89.7762	3,604.98	87.1206	3,604.98	88.6483
3,732.42	89.7188	3,732.42	86.4719	3,732.42	88.392
3,864.26	89.8614	3,864.26	86.1284	3,864.26	88.3842
4,000.49	89.1621	4,000.49	85.3675	4,000.49	87.6667
4,141.11	88.9838	4,141.11	85.7408	4,141.11	87.6582
4,287.6	88.5377	4,287.6	85.2441	4,287.6	87.1959
4,438.48	88.1135	4,438.48	85.3332	4,438.48	86.9421
4,595.21	88.1138	4,595.21	85.0935	4,595.21	86.8611
4,756.35	87.4877	4,756.35	85.4824	4,756.35	86.5998
4,924.8	87.7567	4,924.8	85.2363	4,924.8	86.6768
5,097.66	87.5315	5,097.66	85.4846	5,097.66	86.6275
5,277.83	87.9752	5,277.83	85.2755	5,277.83	86.8318
5,463.87	87.9076	5,463.87	85.4327	5,463.87	86.8441
5,657.23	87.6039	5,657.23	85.5986	5,657.23	86.716
5,856.45	87.7785	5,856.45	85.5721	5,856.45	86.8139
6,062.99	87.9793	6,062.99	85.9113	6,062.99	87.0673
6,276.86	88.065	6,276.86	85.6205	6,276.86	87.0125
6,498.05	88.1757	6,498.05	85.639	6,498.05	87.09
6,726.56	87.9445	6,726.56	85.5128	6,726.56	86.8966
6,963.87	88.0667	6,963.87	85.4272	6,963.87	86.9445
7,209.96	87.9517	7,209.96	85.1389	7,209.96	86.7692
7,464.84	88.1343	7,464.84	85.0379	7,464.84	86.8564
7,727.05	88.0882	7,727.05	84.9747	7,727.05	86.8047
7,999.51	88.1932	7,999.51	85.0028	7,999.51	86.8846
8,282.23	88.4124	8,282.23	85.0338	8,282.23	87.0437
8,573.73	88.3125	8,573.73	84.8005	8,573.73	86.9022
8,876.95	88.2028	8,876.95	84.4966	8,876.95	86.7336
9,188.96	88.1054	9,188.96	84.4174	9,188.96	86.6416
9,514.16	88.1892	9,514.16	84.2804	9,514.16	86.6605
9,849.61	88.298	9,849.61	84.2906	9,849.61	86.741
10,196.8	88.5206	10,196.8	84.426	10,196.8	86.939
10,555.7	88.6699	10,555.7	84.4359	10,555.7	87.0497
10,927.7	88.4435	10,927.7	84.3806	10,927.7	86.8708
11,313	87.8887	11,313	84.4355	11,313	86.4967
11,712.9	87.8296	11,712.9	84.2735	11,712.9	86.4058
12,126	87.9812	12,126	84.5008	12,126	86.5807
12,553.7	87.8318	12,553.7	84.6766	12,553.7	86.5347
12,996.1	87.9546	12,996.1	84.488	12,996.1	86.5583
13,454.6	87.8456	13,454.6	84.1478	13,454.6	86.3789
13,929.2	87.4238	13,929.2	83.9486	13,929.2	86.0249
14,419.9	87.2305	14,419.9	83.7695	14,419.9	85.836
14,928.2	86.8867	14,928.2	83.3992	14,928.2	85.484
15,455.6	86.5641	15,455.6	82.3822	15,455.6	84.9582
16,000.5	86.2983	16,000.5	81.0419	16,000.5	84.4211
16,564.5	85.8476	16,564.5	79.8255	16,564.5	83.8061
17,148.9	85.113	17,148.9	77.8625	17,148.9	82.8521
17,752.4	84.0662	17,752.4	75.6775	17,752.4	81.6437
18,379.4	82.6611	18,379.4	73.7694	18,379.4	80.1781
19,026.9	81.5738	19,026.9	70.2627	19,026.9	78.8734
19,697.8	80.0155	19,697.8	66.5545	19,697.8	77.1967
19,999.5	79.4305	19,999.5	66.9132	19,999.5	76.6569
