"Horizontal Reflections"							
"Front"		"Side"		"Rear"		"Total Horizontal Reflection"	
"Frequency [Hz]"	"Sound Pessure Level [dB]  / [2.83V 1m] "	"Frequency [Hz]"	"Sound Pessure Level [dB]  / [2.83V 1m] "	"Frequency [Hz]"	"Sound Pessure Level [dB]  / [2.83V 1m] "	"Frequency [Hz]"	"Sound Pessure Level [dB]  / [2.83V 1m] "
20.5078	63.3538	20.5078	64.4857	20.5078	68.9365	20.5078	67.2694
21.2402	63.4249	21.2402	64.1968	21.2402	68.6745	21.2402	67.0308
21.9727	64.9525	21.9727	65.7953	21.9727	69.9856	21.9727	68.4032
22.7051	65.0041	22.7051	66.1196	22.7051	70.6569	22.7051	68.9718
23.4375	66.765	23.4375	67.5213	23.4375	71.3518	23.4375	69.8667
24.1699	67.4656	24.1699	68.2897	24.1699	72.1491	24.1699	70.6503
25.6348	69.4232	25.6348	70.1394	25.6348	73.5806	25.6348	72.2031
26.3672	70.2534	26.3672	70.9026	26.3672	74.1772	26.3672	72.8533
27.0996	71.2365	27.0996	71.7899	27.0996	74.8091	27.0996	73.5701
27.832	71.887	27.832	72.3592	27.832	75.2459	27.832	74.0563
29.2969	73.0937	29.2969	73.6611	29.2969	76.5824	29.2969	75.3712
30.0293	73.7615	30.0293	74.3574	30.0293	77.2181	30.0293	76.022
31.4941	75.6001	31.4941	76.0842	31.4941	78.4798	31.4941	77.4449
32.2266	76.1999	32.2266	76.6219	32.2266	78.8878	32.2266	77.9043
33.6914	77.4766	33.6914	77.904	33.6914	80.0571	33.6914	79.1113
34.4238	78.0875	34.4238	78.498	34.4238	80.5658	34.4238	79.6519
35.8887	79.0289	35.8887	79.4318	35.8887	81.4242	35.8887	80.5377
37.3535	80.1773	37.3535	80.6083	37.3535	82.5358	37.3535	81.6684
38.8184	81.2158	38.8184	81.5842	38.8184	83.2867	38.8184	82.5096
39.5508	81.4407	39.5508	81.8005	39.5508	83.4808	39.5508	82.7132
41.0156	82.0951	41.0156	82.4855	41.0156	84.1466	41.0156	83.3817
42.4805	83.0356	42.4805	83.3978	42.4805	84.9388	42.4805	84.2229
43.9453	83.7212	43.9453	84.0494	43.9453	85.4812	43.9453	84.812
45.4102	84.0535	45.4102	84.4089	45.4102	85.9048	45.4102	85.207
47.6074	84.9793	47.6074	85.3375	47.6074	86.7471	47.6074	86.0819
49.0723	85.4522	49.0723	85.8228	49.0723	87.2162	49.0723	86.5554
50.5371	85.8483	50.5371	86.2204	50.5371	87.577	50.5371	86.9302
52.7344	86.4793	52.7344	86.8526	52.7344	88.1615	52.7344	87.533
54.1992	86.9031	54.1992	87.2577	54.1992	88.4846	54.1992	87.8912
56.3965	87.4266	56.3965	87.7798	56.3965	88.9768	56.3965	88.3954
58.5938	87.8859	58.5938	88.2341	58.5938	89.3811	58.5938	88.8205
60.0586	88.1549	60.0586	88.4987	60.0586	89.6146	60.0586	89.0671
62.2559	88.4862	62.2559	88.8285	62.2559	89.9131	62.2559	89.3784
64.4531	88.755	64.4531	89.0994	64.4531	90.166	64.4531	89.6382
66.6504	88.9529	66.6504	89.3086	66.6504	90.3704	66.6504	89.8428
69.5801	89.3295	69.5801	89.6754	69.5801	90.6772	69.5801	90.1755
71.7773	89.5168	71.7773	89.8548	71.7773	90.8157	71.7773	90.332
73.9746	89.755	73.9746	90.0831	73.9746	91.0027	73.9746	90.5376
76.9043	89.9177	76.9043	90.2572	76.9043	91.1824	76.9043	90.7131
79.834	90.0751	79.834	90.4163	79.834	91.3202	79.834	90.8594
82.7637	90.2098	82.7637	90.5406	82.7637	91.3979	82.7637	90.9581
85.6934	90.2899	85.6934	90.622	85.6934	91.4679	85.6934	91.0326
88.623	90.3315	88.623	90.6681	88.623	91.5065	88.623	91.0736
91.5527	90.2834	91.5527	90.6244	91.5527	91.4529	91.5527	91.0235
94.4824	90.2625	94.4824	90.6028	94.4824	91.4135	94.4824	90.9917
98.1445	90.2143	98.1445	90.5539	98.1445	91.3521	98.1445	90.9356
101.807	90.0997	101.807	90.4573	101.807	91.2796	101.807	90.85
105.469	90.0542	105.469	90.377	105.469	91.1134	105.469	90.7257
109.131	89.9768	109.131	90.3523	109.131	91.1886	109.131	90.7503
112.793	90.0322	112.793	90.3967	112.793	91.1946	112.793	90.7741
116.455	89.946	116.455	90.2886	116.455	91.0339	116.455	90.6391
120.85	89.9004	120.85	90.2501	120.85	91.0164	120.85	90.6116
125.244	89.8538	125.244	90.1948	125.244	90.9661	125.244	90.5607
129.639	89.7509	129.639	90.0664	129.639	90.796	129.639	90.4124
134.033	89.605	134.033	89.9101	134.033	90.6421	134.033	90.2592
138.428	89.3257	138.428	89.633	138.428	90.3944	138.428	89.9987
143.555	89.0896	143.555	89.3469	143.555	90.0528	143.555	89.689
148.682	89.0026	148.682	89.1832	148.682	89.7779	148.682	89.4752
153.809	88.9998	153.809	89.1205	153.809	89.5933	153.809	89.3545
159.668	89.225	159.668	89.2709	159.668	89.5975	159.668	89.4378
164.795	89.6309	164.795	89.5723	164.795	89.6261	164.795	89.6121
170.654	89.7867	170.654	89.6848	170.654	89.6351	170.654	89.6788
176.514	89.419	176.514	89.2441	176.514	89.0797	176.514	89.1934
183.105	89.0027	183.105	88.8133	183.105	88.6063	183.105	88.7437
189.697	89.3419	189.697	89.0206	189.697	88.3151	189.697	88.7324
196.289	89.5841	196.289	89.2447	196.289	88.5906	196.289	88.9853
202.881	89.7585	202.881	89.3702	202.881	88.6226	202.881	89.077
210.205	89.3857	210.205	88.8514	210.205	87.6338	210.205	88.3765
217.529	89.4777	217.529	89.0637	217.529	87.8137	217.529	88.5451
225.586	89.7262	225.586	89.1236	225.586	87.4645	225.586	88.4755
232.91	89.5947	232.91	89.002	232.91	86.8439	232.91	88.1494
241.699	89.5582	241.699	88.7511	241.699	86.6544	241.699	87.9815
249.756	89.2914	249.756	88.8258	249.756	87.0268	249.756	88.0841
258.545	90.5443	258.545	89.707	258.545	87.2911	258.545	88.8248
268.066	89.8765	268.066	89.2679	268.066	87.2203	268.066	88.4631
277.588	90.4342	277.588	89.568	277.588	86.2046	277.588	88.3671
287.109	90.2265	287.109	89.2539	287.109	86.0037	287.109	88.1229
297.363	89.5628	297.363	88.5347	297.363	85.0902	297.363	87.3596
307.617	89.8283	307.617	89.0697	307.617	85.6179	307.617	87.8071
318.604	89.2537	318.604	88.7883	318.604	85.9521	318.604	87.647
329.59	89.4196	329.59	88.068	329.59	86.019	329.59	87.4756
341.309	90.2415	341.309	88.9402	341.309	86.3399	341.309	88.1319
353.76	90.3499	353.76	89.2866	353.76	85.5787	353.76	88.0424
366.211	90.0692	366.211	88.9539	366.211	85.4567	366.211	87.7908
378.662	89.8429	378.662	88.8593	378.662	85.5756	378.662	87.721
392.578	89.4043	392.578	88.6835	392.578	85.2018	392.578	87.3997
405.762	88.9839	405.762	87.9136	405.762	84.82	405.762	86.8647
420.41	89.5212	420.41	88.7951	420.41	84.6245	420.41	87.3054
435.059	89.6061	435.059	88.7594	435.059	84.7673	435.059	87.3602
450.439	88.8125	450.439	88.0902	450.439	85.3374	450.439	87.0523
466.553	88.9057	466.553	87.9799	466.553	84.2646	466.553	86.6884
482.666	89.3295	482.666	87.8323	482.666	83.9344	482.666	86.6823
500.244	88.9545	500.244	88.0508	500.244	84.0577	500.244	86.67
517.822	88.6691	517.822	87.347	517.822	84.3987	517.822	86.427
536.133	88.9842	536.133	87.6396	536.133	83.2975	536.133	86.3141
554.443	88.3215	554.443	86.9613	554.443	83.6306	554.443	85.9313
574.219	89.0526	574.219	87.1348	574.219	83.2219	574.219	86.136
594.727	88.6866	594.727	86.2416	594.727	83.1909	594.727	85.6896
615.234	88.7641	615.234	86.3433	615.234	82.9837	615.234	85.6923
637.207	89.6106	637.207	86.6294	637.207	83.8902	637.207	86.3835
659.912	90.1837	659.912	87.6713	659.912	82.9106	659.912	86.707
683.35	90.8781	683.35	88.1089	683.35	83.9055	683.35	87.3835
706.787	91.0423	706.787	88.3983	706.787	83.5255	706.787	87.4674
731.689	90.7262	731.689	88.3435	731.689	83.0029	731.689	87.2008
758.057	90.7725	758.057	87.6655	758.057	82.9744	758.057	86.9832
784.424	90.4388	784.424	87.9409	784.424	81.9022	784.424	86.7191
812.256	90.1	812.256	87.1804	812.256	82.2426	812.256	86.3604
840.82	89.6792	840.82	87.4952	840.82	80.3607	840.82	85.9548
870.85	89.8304	870.85	87.2013	870.85	81.5149	870.85	86.1026
901.611	90.3014	901.611	88.0153	901.611	80.5742	901.611	86.4791
933.105	90.2539	933.105	87.3099	933.105	80.8613	933.105	86.2327
966.064	88.7813	966.064	86.0973	966.064	80.5393	966.064	85.0476
999.756	91.0514	999.756	87.8882	999.756	79.6597	999.756	86.6961
1,034.91	89.2546	1,034.91	86.086	1,034.91	79.9136	1,034.91	85.1629
1,071.53	89.7527	1,071.53	86.1193	1,071.53	79.6429	1,071.53	85.3902
1,109.62	89.4425	1,109.62	85.2691	1,109.62	79.1796	1,109.62	84.8879
1,148.44	89.0526	1,148.44	86.4409	1,148.44	79.8053	1,148.44	85.1746
1,189.45	90.0779	1,189.45	86.4705	1,189.45	78.7883	1,189.45	85.5767
1,231.2	90.1889	1,231.2	86.5117	1,231.2	79.4165	1,231.2	85.7246
1,274.41	90.6283	1,274.41	86.5806	1,274.41	79.2616	1,274.41	85.973
1,319.82	90.1164	1,319.82	86.3247	1,319.82	78.8484	1,319.82	85.5555
1,365.97	89.3944	1,365.97	85.2218	1,365.97	77.6462	1,365.97	84.6579
1,414.31	88.8163	1,414.31	84.8811	1,414.31	76.9897	1,414.31	84.1483
1,464.11	89.0515	1,464.11	84.7353	1,464.11	76.806	1,464.11	84.22
1,515.38	89.3765	1,515.38	85.3286	1,515.38	76.7277	1,515.38	84.5943
1,568.85	88.9414	1,568.85	84.7819	1,568.85	76.8359	1,568.85	84.1729
1,624.51	88.3852	1,624.51	84.0432	1,624.51	75.9568	1,624.51	83.5284
1,681.64	88.3611	1,681.64	83.5608	1,681.64	75.3726	1,681.64	83.3157
1,740.97	88.8649	1,740.97	83.8991	1,740.97	75.9396	1,740.97	83.777
1,802.49	89.316	1,802.49	84.3812	1,802.49	76.4937	1,802.49	84.246
1,866.21	88.9462	1,866.21	84.4829	1,866.21	75.0204	1,866.21	83.9322
1,932.13	88.1004	1,932.13	83.8599	1,932.13	75.451	1,932.13	83.2558
2,000.24	89.0471	2,000.24	84.6388	2,000.24	74.9294	2,000.24	84.0379
2,070.56	89.647	2,070.56	85.166	2,070.56	76.4953	2,070.56	84.6846
2,143.8	88.7255	2,143.8	84.7697	2,143.8	76.0688	2,143.8	83.9732
2,219.24	88.0194	2,219.24	84.1364	2,219.24	75.1526	2,219.24	83.274
2,297.61	89.1842	2,297.61	85.0452	2,297.61	75.5234	2,297.61	84.2932
2,378.17	89.2846	2,378.17	85.3577	2,378.17	75.4147	2,378.17	84.4507
2,462.4	88.5459	2,462.4	84.7309	2,462.4	74.7656	2,462.4	83.7565
2,548.83	88.4536	2,548.83	84.9398	2,548.83	75.3789	2,548.83	83.8208
2,638.92	88.6576	2,638.92	85.7447	2,638.92	75.4819	2,638.92	84.2433
2,731.93	88.4203	2,731.93	86.0371	2,731.93	75.6357	2,731.93	84.2489
2,828.61	88.6228	2,828.61	86.203	2,828.61	75.5346	2,828.61	84.4147
2,928.22	88.4421	2,928.22	85.8072	2,928.22	74.8169	2,928.22	84.1097
3,031.49	88.5953	3,031.49	85.3937	3,031.49	74.0755	3,031.49	83.9859
3,138.43	89.3517	3,138.43	85.7657	3,138.43	73.8028	3,138.43	84.5473
3,249.02	89.1218	3,249.02	85.3811	3,249.02	73.7465	3,249.02	84.2691
3,363.28	88.8711	3,363.28	85.0068	3,363.28	73.265	3,363.28	83.9639
3,481.93	89.1789	3,481.93	85.296	3,481.93	73.6485	3,481.93	84.2686
3,604.98	89.0943	3,604.98	85.1129	3,604.98	74.0276	3,604.98	84.1721
3,732.42	89.0132	3,732.42	85.3249	3,732.42	74.2688	3,732.42	84.211
3,863.53	89.4045	3,863.53	85.7904	3,863.53	74.5035	3,863.53	84.6209
3,999.76	89.3553	3,999.76	85.9336	3,999.76	74.7665	3,999.76	84.6589
4,141.11	89.2642	4,141.11	86.0979	4,141.11	74.5628	4,141.11	84.6589
4,286.87	89.581	4,286.87	86.0494	4,286.87	74.179	4,286.87	84.8033
4,438.48	89.2613	4,438.48	85.6101	4,438.48	72.8129	4,438.48	84.3966
4,594.48	89.7698	4,594.48	85.9399	4,594.48	73.1309	4,594.48	84.8334
4,757.08	89.43	4,757.08	85.8033	4,757.08	72.6021	4,757.08	84.561
4,924.8	89.5243	4,924.8	85.5406	4,924.8	72.2822	4,924.8	84.513
5,098.39	89.3239	5,098.39	85.3026	5,098.39	72.4341	5,098.39	84.311
5,277.83	88.9759	5,277.83	85.4501	5,277.83	72.0844	5,277.83	84.1424
5,463.87	89.3796	5,463.87	85.3104	5,463.87	72.2434	5,463.87	84.3418
5,656.49	89.1598	5,656.49	85.3295	5,656.49	71.7608	5,656.49	84.1983
5,856.45	89.2886	5,856.45	85.451	5,856.45	71.107	5,856.45	84.3029
6,062.99	89.6243	6,062.99	85.204	6,062.99	70.5782	6,062.99	84.4158
6,276.86	89.8883	6,276.86	85.2076	6,276.86	69.9922	6,276.86	84.5775
6,498.05	89.9402	6,498.05	85.1538	6,498.05	69.5595	6,498.05	84.5873
6,727.29	89.747	6,727.29	84.8661	6,727.29	69.3943	6,727.29	84.3649
6,964.6	89.3918	6,964.6	84.8603	6,964.6	70.0826	6,964.6	84.1409
7,209.96	88.8697	7,209.96	84.612	7,209.96	69.7928	7,209.96	83.7153
7,464.11	88.3335	7,464.11	84.1083	7,464.11	69.0552	7,464.11	83.1861
7,727.78	88.3317	7,727.78	83.925	7,727.78	68.2699	7,727.78	83.1079
8,000.24	88.8568	8,000.24	84.1512	8,000.24	67.6068	8,000.24	83.5166
8,282.23	89.5822	8,282.23	84.6922	8,282.23	68.0163	8,282.23	84.1794
8,574.46	89.6856	8,574.46	84.7584	8,574.46	67.804	8,574.46	84.2673
8,876.22	89.2932	8,876.22	84.2043	8,876.22	67.1558	8,876.22	83.8223
9,189.7	88.5479	9,189.7	83.5135	9,189.7	66.9958	9,189.7	83.1007
9,513.43	88.1941	9,513.43	82.7576	9,513.43	66.4218	9,513.43	82.6251
9,848.88	88.4573	9,848.88	82.516	9,848.88	65.5351	9,848.88	82.7364
10,196.8	88.7778	10,196.8	82.6219	10,196.8	65.4436	10,196.8	82.9972
10,556.4	88.8788	10,556.4	82.7312	10,556.4	66.1078	10,556.4	83.1059
10,928.5	88.6392	10,928.5	82.5867	10,928.5	66.3624	10,928.5	82.8962
11,313.7	88.1965	11,313.7	82.2817	11,313.7	66.3817	11,313.7	82.4953
11,712.9	87.4663	11,712.9	82.1587	11,712.9	66.3424	11,712.9	81.9434
12,126	87.0863	12,126	82.2317	12,126	66.111	12,126	81.7027
12,553.7	86.6546	12,553.7	82.3955	12,553.7	66.1899	12,553.7	81.4743
12,996.1	85.9907	12,996.1	82.2909	12,996.1	65.7532	12,996.1	81.0142
13,454.6	85.2826	13,454.6	82.1454	13,454.6	65.2384	13,454.6	80.5273
13,928.5	84.8058	13,928.5	81.8773	13,928.5	64.7048	13,928.5	80.135
14,419.9	85.1579	14,419.9	81.9535	14,419.9	64.1774	14,419.9	80.3624
14,928.2	85.7007	14,928.2	81.9843	14,928.2	62.9163	14,928.2	80.6876
15,454.8	86.1646	15,454.8	81.9144	15,454.8	61.6464	15,454.8	80.946
15,999.8	85.9378	15,999.8	81.5456	15,999.8	60.4728	15,999.8	80.6651
16,564.5	86.032	16,564.5	80.9407	16,564.5	58.5523	16,564.5	80.5252
17,148.2	86.4946	17,148.2	80.2424	17,148.2	56.4696	17,148.2	80.6578
17,753.2	86.6869	17,753.2	79.1625	17,753.2	55.198	17,753.2	80.5597
18,379.4	86.0561	18,379.4	77.6562	18,379.4	53.0072	18,379.4	79.7642
19,027.6	85.4507	19,027.6	76.115	19,027.6	52.8343	19,027.6	79.0129
19,698.5	84.9948	19,698.5	74.5046	19,698.5	53.1878	19,698.5	78.4112
19,999.5	84.6013	19,999.5	73.6669	19,999.5	53.5528	19,999.5	77.971
