"SPL Horizontal"																																																																							
"On-Axis"		"10°"		"-10°"		"20°"		"-20°"		"30°"		"-30°"		"40°"		"-40°"		"50°"		"-50°"		"60°"		"-60°"		"70°"		"-70°"		"80°"		"-80°"		"90°"		"-90°"		"100°"		"-100°"		"110°"		"-110°"		"120°"		"-120°"		"130°"		"-130°"		"140°"		"-140°"		"150°"		"-150°"		"160°"		"-160°"		"170°"		"-170°"		"180°"	
"Frequency [Hz]"	"Sound Pessure Level [dB]  / [2.83V 1m] "	"Frequency [Hz]"	"Sound Pessure Level [dB]  / [2.83V 1m] "	"Frequency [Hz]"	"Sound Pessure Level [dB]  / [2.83V 1m] "	"Frequency [Hz]"	"Sound Pessure Level [dB]  / [2.83V 1m] "	"Frequency [Hz]"	"Sound Pessure Level [dB]  / [2.83V 1m] "	"Frequency [Hz]"	"Sound Pessure Level [dB]  / [2.83V 1m] "	"Frequency [Hz]"	"Sound Pessure Level [dB]  / [2.83V 1m] "	"Frequency [Hz]"	"Sound Pessure Level [dB]  / [2.83V 1m] "	"Frequency [Hz]"	"Sound Pessure Level [dB]  / [2.83V 1m] "	"Frequency [Hz]"	"Sound Pessure Level [dB]  / [2.83V 1m] "	"Frequency [Hz]"	"Sound Pessure Level [dB]  / [2.83V 1m] "	"Frequency [Hz]"	"Sound Pessure Level [dB]  / [2.83V 1m] "	"Frequency [Hz]"	"Sound Pessure Level [dB]  / [2.83V 1m] "	"Frequency [Hz]"	"Sound Pessure Level [dB]  / [2.83V 1m] "	"Frequency [Hz]"	"Sound Pessure Level [dB]  / [2.83V 1m] "	"Frequency [Hz]"	"Sound Pessure Level [dB]  / [2.83V 1m] "	"Frequency [Hz]"	"Sound Pessure Level [dB]  / [2.83V 1m] "	"Frequency [Hz]"	"Sound Pessure Level [dB]  / [2.83V 1m] "	"Frequency [Hz]"	"Sound Pessure Level [dB]  / [2.83V 1m] "	"Frequency [Hz]"	"Sound Pessure Level [dB]  / [2.83V 1m] "	"Frequency [Hz]"	"Sound Pessure Level [dB]  / [2.83V 1m] "	"Frequency [Hz]"	"Sound Pessure Level [dB]  / [2.83V 1m] "	"Frequency [Hz]"	"Sound Pessure Level [dB]  / [2.83V 1m] "	"Frequency [Hz]"	"Sound Pessure Level [dB]  / [2.83V 1m] "	"Frequency [Hz]"	"Sound Pessure Level [dB]  / [2.83V 1m] "	"Frequency [Hz]"	"Sound Pessure Level [dB]  / [2.83V 1m] "	"Frequency [Hz]"	"Sound Pessure Level [dB]  / [2.83V 1m] "	"Frequency [Hz]"	"Sound Pessure Level [dB]  / [2.83V 1m] "	"Frequency [Hz]"	"Sound Pessure Level [dB]  / [2.83V 1m] "	"Frequency [Hz]"	"Sound Pessure Level [dB]  / [2.83V 1m] "	"Frequency [Hz]"	"Sound Pessure Level [dB]  / [2.83V 1m] "	"Frequency [Hz]"	"Sound Pessure Level [dB]  / [2.83V 1m] "	"Frequency [Hz]"	"Sound Pessure Level [dB]  / [2.83V 1m] "	"Frequency [Hz]"	"Sound Pessure Level [dB]  / [2.83V 1m] "	"Frequency [Hz]"	"Sound Pessure Level [dB]  / [2.83V 1m] "	"Frequency [Hz]"	"Sound Pessure Level [dB]  / [2.83V 1m] "
20.5078	56.3021	20.5078	56.2504	20.5078	56.3454	20.5078	56.1909	20.5078	56.3795	20.5078	56.1249	20.5078	56.4041	20.5078	56.0541	20.5078	56.4189	20.5078	55.9806	20.5078	56.4235	20.5078	55.9067	20.5078	56.4178	20.5078	55.8349	20.5078	56.4019	20.5078	55.7681	20.5078	56.3764	20.5078	55.7092	20.5078	56.3419	20.5078	55.661	20.5078	56.2994	20.5078	55.6259	20.5078	56.2498	20.5078	55.6059	20.5078	56.1938	20.5078	55.6018	20.5078	56.1322	20.5078	55.6136	20.5078	56.0662	20.5078	55.6402	20.5078	55.997	20.5078	55.68	20.5078	55.9264	20.5078	55.731	20.5078	55.8569	20.5078	55.7909
21.9727	55.9901	21.9727	56.0384	21.9727	55.9387	21.9727	56.083	21.9727	55.8846	21.9727	56.1237	21.9727	55.8282	21.9727	56.1603	21.9727	55.7698	21.9727	56.1928	21.9727	55.71	21.9727	56.2207	21.9727	55.6502	21.9727	56.2434	21.9727	55.5936	21.9727	56.2598	21.9727	55.5448	21.9727	56.2688	21.9727	55.5092	21.9727	56.2693	21.9727	55.4919	21.9727	56.2605	21.9727	55.4964	21.9727	56.2421	21.9727	55.523	21.9727	56.2139	21.9727	55.5697	21.9727	56.1759	21.9727	55.632	21.9727	56.1286	21.9727	55.7046	21.9727	56.0724	21.9727	55.7824	21.9727	56.0081	21.9727	55.861	21.9727	55.937
23.4375	58.0925	23.4375	58.0516	23.4375	58.128	23.4375	58.0063	23.4375	58.1577	23.4375	57.9582	23.4375	58.1813	23.4375	57.9093	23.4375	58.1991	23.4375	57.8623	23.4375	58.2115	23.4375	57.8191	23.4375	58.2193	23.4375	57.7815	23.4375	58.2237	23.4375	57.7506	23.4375	58.2258	23.4375	57.7271	23.4375	58.2264	23.4375	57.7118	23.4375	58.225	23.4375	57.7055	23.4375	58.2201	23.4375	57.7093	23.4375	58.2093	23.4375	57.7241	23.4375	58.1898	23.4375	57.7503	23.4375	58.16	23.4375	57.7878	23.4375	58.1193	23.4375	57.8352	23.4375	58.0688	23.4375	57.8905	23.4375	58.0113	23.4375	57.9505
24.9023	58.3184	24.9023	58.2925	24.9023	58.3425	24.9023	58.2652	24.9023	58.3637	24.9023	58.237	24.9023	58.3811	24.9023	58.2084	24.9023	58.3934	24.9023	58.1801	24.9023	58.3996	24.9023	58.1528	24.9023	58.3992	24.9023	58.1272	24.9023	58.3921	24.9023	58.1041	24.9023	58.3793	24.9023	58.0844	24.9023	58.362	24.9023	58.0689	24.9023	58.3415	24.9023	58.0582	24.9023	58.319	24.9023	58.0532	24.9023	58.2953	24.9023	58.0543	24.9023	58.2706	24.9023	58.0614	24.9023	58.2449	24.9023	58.0742	24.9023	58.2185	24.9023	58.092	24.9023	58.1915	24.9023	58.1137	24.9023	58.1645	24.9023	58.1382
26.3672	59.3607	26.3672	59.3434	26.3672	59.3713	26.3672	59.3201	26.3672	59.3753	26.3672	59.2915	26.3672	59.3724	26.3672	59.2589	26.3672	59.363	26.3672	59.2238	26.3672	59.3473	26.3672	59.1876	26.3672	59.326	26.3672	59.1516	26.3672	59.2996	26.3672	59.1169	26.3672	59.2692	26.3672	59.0839	26.3672	59.2355	26.3672	59.0531	26.3672	59.1994	26.3672	59.0248	26.3672	59.1619	26.3672	58.9994	26.3672	59.1236	26.3672	58.9774	26.3672	59.0858	26.3672	58.9598	26.3672	59.0495	26.3672	58.9474	26.3672	59.0164	26.3672	58.9412	26.3672	58.988	26.3672	58.9419	26.3672	58.9655	26.3672	58.95
27.832	60.0118	27.832	60.0101	27.832	60.0086	27.832	60.0029	27.832	60.001	27.832	59.9898	27.832	59.989	27.832	59.9704	27.832	59.9728	27.832	59.9445	27.832	59.9523	27.832	59.9123	27.832	59.9277	27.832	59.8745	27.832	59.8995	27.832	59.8325	27.832	59.8686	27.832	59.7881	27.832	59.8359	27.832	59.7436	27.832	59.8025	27.832	59.7013	27.832	59.7695	27.832	59.6634	27.832	59.7375	27.832	59.6318	27.832	59.7072	27.832	59.608	27.832	59.6788	27.832	59.5926	27.832	59.6528	27.832	59.5858	27.832	59.6297	27.832	59.5872	27.832	59.6103	27.832	59.5957
29.2969	60.5935	29.2969	60.5927	29.2969	60.5909	29.2969	60.5884	29.2969	60.5848	29.2969	60.5808	29.2969	60.5751	29.2969	60.5698	29.2969	60.5619	29.2969	60.5555	29.2969	60.5451	29.2969	60.538	29.2969	60.5251	29.2969	60.5175	29.2969	60.5024	29.2969	60.494	29.2969	60.4776	29.2969	60.4683	29.2969	60.452	29.2969	60.4411	29.2969	60.4263	29.2969	60.4135	29.2969	60.4018	29.2969	60.387	29.2969	60.3792	29.2969	60.363	29.2969	60.3591	29.2969	60.3426	29.2969	60.342	29.2969	60.3267	29.2969	60.3281	29.2969	60.3157	29.2969	60.3176	29.2969	60.3096	29.2969	60.3109	29.2969	60.3081
30.7617	61.1755	30.7617	61.1845	30.7617	61.1632	30.7617	61.1901	30.7617	61.1481	30.7617	61.1925	30.7617	61.1306	30.7617	61.1919	30.7617	61.1114	30.7617	61.1887	30.7617	61.0915	30.7617	61.1829	30.7617	61.0714	30.7617	61.1748	30.7617	61.052	30.7617	61.1642	30.7617	61.0339	30.7617	61.151	30.7617	61.0179	30.7617	61.1356	30.7617	61.0043	30.7617	61.1181	30.7617	60.9936	30.7617	61.099	30.7617	60.9858	30.7617	61.0792	30.7617	60.9807	30.7617	61.0594	30.7617	60.9784	30.7617	61.0405	30.7617	60.9786	30.7617	61.0232	30.7617	60.9816	30.7617	61.0084	30.7617	60.9875	30.7617	60.9964
32.2266	62.1602	32.2266	62.1632	32.2266	62.1534	32.2266	62.1622	32.2266	62.1431	32.2266	62.1572	32.2266	62.1295	32.2266	62.148	32.2266	62.1127	32.2266	62.1347	32.2266	62.093	32.2266	62.1177	32.2266	62.0706	32.2266	62.0974	32.2266	62.0463	32.2266	62.0743	32.2266	62.0207	32.2266	62.049	32.2266	61.9947	32.2266	62.0224	32.2266	61.9694	32.2266	61.9953	32.2266	61.9455	32.2266	61.9687	32.2266	61.9238	32.2266	61.9435	32.2266	61.905	32.2266	61.9207	32.2266	61.8894	32.2266	61.9012	32.2266	61.8775	32.2266	61.8856	32.2266	61.8698	32.2266	61.8744	32.2266	61.8665	32.2266	61.868
33.6914	62.8967	33.6914	62.8876	33.6914	62.8981	33.6914	62.8712	33.6914	62.8919	33.6914	62.8477	33.6914	62.8782	33.6914	62.818	33.6914	62.8574	33.6914	62.7827	33.6914	62.8298	33.6914	62.7428	33.6914	62.796	33.6914	62.6994	33.6914	62.7565	33.6914	62.6535	33.6914	62.7123	33.6914	62.6062	33.6914	62.6643	33.6914	62.5589	33.6914	62.6141	33.6914	62.513	33.6914	62.5633	33.6914	62.4699	33.6914	62.5139	33.6914	62.4312	33.6914	62.4679	33.6914	62.3981	33.6914	62.4271	33.6914	62.3719	33.6914	62.3932	33.6914	62.3535	33.6914	62.3674	33.6914	62.3435	33.6914	62.3503	33.6914	62.3423
35.1562	63.2836	35.1562	63.2831	35.1562	63.28	35.1562	63.278	35.1562	63.2726	35.1562	63.268	35.1562	63.2619	35.1562	63.2531	35.1562	63.248	35.1562	63.2335	35.1562	63.2312	35.1562	63.2094	35.1562	63.2115	35.1562	63.1816	35.1562	63.189	35.1562	63.1508	35.1562	63.1639	35.1562	63.1182	35.1562	63.1367	35.1562	63.0851	35.1562	63.1082	35.1562	63.0529	35.1562	63.0792	35.1562	63.0229	35.1562	63.0509	35.1562	62.9964	35.1562	63.0244	35.1562	62.9745	35.1562	63.0005	35.1562	62.958	35.1562	62.98	35.1562	62.9475	35.1562	62.9635	35.1562	62.943	35.1562	62.9515	35.1562	62.9445
36.6211	63.8839	36.6211	63.8812	36.6211	63.8829	36.6211	63.8748	36.6211	63.8785	36.6211	63.8647	36.6211	63.8706	36.6211	63.8507	36.6211	63.8591	36.6211	63.8332	36.6211	63.844	36.6211	63.8123	36.6211	63.8252	36.6211	63.7886	36.6211	63.8027	36.6211	63.7625	36.6211	63.7767	36.6211	63.735	36.6211	63.7476	36.6211	63.7069	36.6211	63.7165	36.6211	63.679	36.6211	63.6846	36.6211	63.6524	36.6211	63.6537	36.6211	63.6279	36.6211	63.6254	36.6211	63.6063	36.6211	63.6014	36.6211	63.5884	36.6211	63.5826	36.6211	63.5747	36.6211	63.5696	36.6211	63.5655	36.6211	63.5626	36.6211	63.5614
38.0859	64.4449	38.0859	64.4421	38.0859	64.4428	38.0859	64.4344	38.0859	64.436	38.0859	64.4216	38.0859	64.4248	38.0859	64.404	38.0859	64.4095	38.0859	64.3819	38.0859	64.3905	38.0859	64.3557	38.0859	64.3685	38.0859	64.3261	38.0859	64.3439	38.0859	64.294	38.0859	64.3176	38.0859	64.2603	38.0859	64.2902	38.0859	64.2263	38.0859	64.2623	38.0859	64.1934	38.0859	64.2346	38.0859	64.1629	38.0859	64.2075	38.0859	64.1364	38.0859	64.1818	38.0859	64.1151	38.0859	64.1578	38.0859	64.0999	38.0859	64.1364	38.0859	64.0914	38.0859	64.118	38.0859	64.0895	38.0859	64.1035	38.0859	64.0938
39.5508	65.3303	39.5508	65.327	39.5508	65.3304	39.5508	65.3203	39.5508	65.3275	39.5508	65.3102	39.5508	65.3218	39.5508	65.2969	39.5508	65.3134	39.5508	65.2806	39.5508	65.3023	39.5508	65.2619	39.5508	65.2884	39.5508	65.2413	39.5508	65.2719	39.5508	65.219	39.5508	65.2529	39.5508	65.1954	39.5508	65.2318	39.5508	65.1708	39.5508	65.2091	39.5508	65.1456	39.5508	65.1853	39.5508	65.1209	39.5508	65.1613	39.5508	65.0978	39.5508	65.1374	39.5508	65.0779	39.5508	65.1146	39.5508	65.0627	39.5508	65.0937	39.5508	65.0531	39.5508	65.0756	39.5508	65.0497	39.5508	65.0616	39.5508	65.0527
41.0156	65.7492	41.0156	65.7779	41.0156	65.7143	41.0156	65.7993	41.0156	65.6744	41.0156	65.8124	41.0156	65.6301	41.0156	65.8163	41.0156	65.5821	41.0156	65.8111	41.0156	65.531	41.0156	65.7968	41.0156	65.4773	41.0156	65.7737	41.0156	65.422	41.0156	65.742	41.0156	65.3662	41.0156	65.7015	41.0156	65.3115	41.0156	65.6521	41.0156	65.2599	41.0156	65.5938	41.0156	65.2133	41.0156	65.528	41.0156	65.1735	41.0156	65.4569	41.0156	65.1421	41.0156	65.3841	41.0156	65.1205	41.0156	65.3135	41.0156	65.1099	41.0156	65.2495	41.0156	65.1112	41.0156	65.1954	41.0156	65.1256	41.0156	65.1537
42.4805	66.0417	42.4805	66.0517	42.4805	66.026	42.4805	66.0557	42.4805	66.0044	42.4805	66.0535	42.4805	65.9773	42.4805	66.0447	42.4805	65.945	42.4805	66.0286	42.4805	65.908	42.4805	66.0047	42.4805	65.8669	42.4805	65.9727	42.4805	65.8225	42.4805	65.9333	42.4805	65.7761	42.4805	65.8881	42.4805	65.7292	42.4805	65.8396	42.4805	65.6838	42.4805	65.7907	42.4805	65.6421	42.4805	65.744	42.4805	65.6066	42.4805	65.7016	42.4805	65.5789	42.4805	65.6645	42.4805	65.5602	42.4805	65.6327	42.4805	65.5505	42.4805	65.606	42.4805	65.5492	42.4805	65.5842	42.4805	65.5551	42.4805	65.5671
43.9453	66.999	43.9453	66.987	43.9453	67.0038	43.9453	66.9682	43.9453	67.0009	43.9453	66.9431	43.9453	66.99	43.9453	66.912	43.9453	66.9706	43.9453	66.8755	43.9453	66.9428	43.9453	66.8345	43.9453	66.9067	43.9453	66.7899	43.9453	66.8632	43.9453	66.7435	43.9453	66.8137	43.9453	66.6972	43.9453	66.7602	43.9453	66.6529	43.9453	66.7053	43.9453	66.6123	43.9453	66.652	43.9453	66.5767	43.9453	66.603	43.9453	66.5467	43.9453	66.5608	43.9453	66.5224	43.9453	66.527	43.9453	66.5035	43.9453	66.5023	43.9453	66.4895	43.9453	66.4862	43.9453	66.4804	43.9453	66.478	43.9453	66.4763
45.4102	67.7586	45.4102	67.7537	45.4102	67.7563	45.4102	67.7415	45.4102	67.7468	45.4102	67.7225	45.4102	67.7303	45.4102	67.6972	45.4102	67.7074	45.4102	67.6663	45.4102	67.6787	45.4102	67.6308	45.4102	67.6451	45.4102	67.5919	45.4102	67.6076	45.4102	67.5511	45.4102	67.5676	45.4102	67.5098	45.4102	67.5266	45.4102	67.47	45.4102	67.4863	45.4102	67.4331	45.4102	67.4485	45.4102	67.4007	45.4102	67.4147	45.4102	67.3735	45.4102	67.3858	45.4102	67.3522	45.4102	67.3625	45.4102	67.3366	45.4102	67.3446	45.4102	67.3265	45.4102	67.332	45.4102	67.3213	45.4102	67.3241	45.4102	67.3205
46.875	68.1572	46.875	68.1514	46.875	68.1568	46.875	68.1394	46.875	68.1499	46.875	68.1214	46.875	68.1365	46.875	68.0978	46.875	68.1167	46.875	68.0691	46.875	68.0908	46.875	68.0359	46.875	68.0592	46.875	67.9992	46.875	68.0228	46.875	67.9602	46.875	67.9825	46.875	67.9201	46.875	67.9399	46.875	67.8804	46.875	67.8966	46.875	67.8426	46.875	67.8544	46.875	67.8077	46.875	67.8152	46.875	67.7769	46.875	67.7805	46.875	67.7507	46.875	67.7514	46.875	67.7297	46.875	67.7287	46.875	67.7142	46.875	67.7128	46.875	67.7046	46.875	67.7036	46.875	67.7009
48.3398	68.7183	48.3398	68.7195	48.3398	68.7117	48.3398	68.715	48.3398	68.7	48.3398	68.7047	48.3398	68.6835	48.3398	68.6884	48.3398	68.6627	48.3398	68.6665	48.3398	68.638	48.3398	68.6392	48.3398	68.6098	48.3398	68.6074	48.3398	68.5786	48.3398	68.5719	48.3398	68.545	48.3398	68.5341	48.3398	68.5099	48.3398	68.4954	48.3398	68.4741	48.3398	68.4572	48.3398	68.4389	48.3398	68.4211	48.3398	68.4055	48.3398	68.3882	48.3398	68.3754	48.3398	68.3598	48.3398	68.3495	48.3398	68.3365	48.3398	68.3288	48.3398	68.3192	48.3398	68.314	48.3398	68.3081	48.3398	68.3054	48.3398	68.3035
51.2695	69.6528	51.2695	69.6448	51.2695	69.6546	51.2695	69.6308	51.2695	69.6502	51.2695	69.611	51.2695	69.64	51.2695	69.586	51.2695	69.6243	51.2695	69.5565	51.2695	69.6035	51.2695	69.5235	51.2695	69.5784	51.2695	69.4882	51.2695	69.5498	51.2695	69.4519	51.2695	69.5185	51.2695	69.4161	51.2695	69.4857	51.2695	69.382	51.2695	69.4525	51.2695	69.3509	51.2695	69.4198	51.2695	69.3239	51.2695	69.3889	51.2695	69.3017	51.2695	69.3604	51.2695	69.2849	51.2695	69.3351	51.2695	69.2736	51.2695	69.3132	51.2695	69.2678	51.2695	69.2953	51.2695	69.2674	51.2695	69.2815	51.2695	69.2721
52.7344	70.0859	52.7344	70.0822	52.7344	70.0829	52.7344	70.0717	52.7344	70.0734	52.7344	70.0545	52.7344	70.058	52.7344	70.0313	52.7344	70.0373	52.7344	70.0029	52.7344	70.0123	52.7344	69.9704	52.7344	69.984	52.7344	69.9352	52.7344	69.9533	52.7344	69.899	52.7344	69.9216	52.7344	69.8633	52.7344	69.8899	52.7344	69.8296	52.7344	69.8593	52.7344	69.7991	52.7344	69.8308	52.7344	69.7728	52.7344	69.8051	52.7344	69.7514	52.7344	69.7825	52.7344	69.735	52.7344	69.7631	52.7344	69.7237	52.7344	69.747	52.7344	69.7174	52.7344	69.734	52.7344	69.7157	52.7344	69.7244	52.7344	69.7182
54.1992	70.3938	54.1992	70.398	54.1992	70.3828	54.1992	70.3951	54.1992	70.3653	54.1992	70.3854	54.1992	70.3419	54.1992	70.3693	54.1992	70.3135	54.1992	70.3476	54.1992	70.2809	54.1992	70.3212	54.1992	70.2455	54.1992	70.2913	54.1992	70.2085	54.1992	70.2591	54.1992	70.1712	54.1992	70.2258	54.1992	70.1352	54.1992	70.1927	54.1992	70.1019	54.1992	70.1607	54.1992	70.0724	54.1992	70.1306	54.1992	70.0478	54.1992	70.103	54.1992	70.0286	54.1992	70.0783	54.1992	70.015	54.1992	70.0567	54.1992	70.007	54.1992	70.0385	54.1992	70.0042	54.1992	70.0239	54.1992	70.0064	54.1992	70.0131
55.6641	70.9771	55.6641	70.9859	55.6641	70.9603	55.6641	70.9866	55.6641	70.936	55.6641	70.9792	55.6641	70.9049	55.6641	70.9641	55.6641	70.8682	55.6641	70.9418	55.6641	70.8271	55.6641	70.9131	55.6641	70.7829	55.6641	70.8789	55.6641	70.737	55.6641	70.8401	55.6641	70.691	55.6641	70.798	55.6641	70.6462	55.6641	70.7538	55.6641	70.604	55.6641	70.7089	55.6641	70.5658	55.6641	70.6647	55.6641	70.5328	55.6641	70.6225	55.6641	70.5058	55.6641	70.5835	55.6641	70.4858	55.6641	70.5489	55.6641	70.473	55.6641	70.5196	55.6641	70.4678	55.6641	70.4964	55.6641	70.4701	55.6641	70.4797
58.5938	72.0842	58.5938	72.0856	58.5938	72.0768	58.5938	72.0812	58.5938	72.0637	58.5938	72.0711	58.5938	72.0448	58.5938	72.0556	58.5938	72.0207	58.5938	72.035	58.5938	71.992	58.5938	72.01	58.5938	71.9594	58.5938	71.9813	58.5938	71.9242	58.5938	71.9498	58.5938	71.8876	58.5938	71.9167	58.5938	71.851	58.5938	71.8832	58.5938	71.8162	58.5938	71.8503	58.5938	71.7844	58.5938	71.8193	58.5938	71.7569	58.5938	71.7909	58.5938	71.7346	58.5938	71.7659	58.5938	71.7179	58.5938	71.7447	58.5938	71.7069	58.5938	71.7274	58.5938	71.7014	58.5938	71.7143	58.5938	71.7011	58.5938	71.7055
60.0586	72.3354	60.0586	72.3332	60.0586	72.3303	60.0586	72.3239	60.0586	72.3179	60.0586	72.308	60.0586	72.2985	60.0586	72.2864	60.0586	72.2728	60.0586	72.2602	60.0586	72.2418	60.0586	72.2308	60.0586	72.2068	60.0586	72.1996	60.0586	72.1693	60.0586	72.1681	60.0586	72.1312	60.0586	72.1374	60.0586	72.0943	60.0586	72.1087	60.0586	72.0604	60.0586	72.0827	60.0586	72.031	60.0586	72.0597	60.0586	72.0072	60.0586	72.0399	60.0586	71.9895	60.0586	72.0229	60.0586	71.9779	60.0586	72.0086	60.0586	71.9719	60.0586	71.9966	60.0586	71.9707	60.0586	71.9867	60.0586	71.9733	60.0586	71.9788
62.9883	73.2121	62.9883	73.2141	62.9883	73.2024	62.9883	73.2083	62.9883	73.1855	62.9883	73.1949	62.9883	73.1618	62.9883	73.1745	62.9883	73.1324	62.9883	73.148	62.9883	73.0984	62.9883	73.1164	62.9883	73.061	62.9883	73.0811	62.9883	73.0219	62.9883	73.0436	62.9883	72.9825	62.9883	73.0054	62.9883	72.9444	62.9883	72.9678	62.9883	72.909	62.9883	72.9321	62.9883	72.8774	62.9883	72.8994	62.9883	72.8505	62.9883	72.8705	62.9883	72.8287	62.9883	72.8459	62.9883	72.812	62.9883	72.8258	62.9883	72.8003	62.9883	72.8103	62.9883	72.7934	62.9883	72.7994	62.9883	72.791	62.9883	72.793
64.4531	73.6043	64.4531	73.607	64.4531	73.5935	64.4531	73.6014	64.4531	73.5749	64.4531	73.5878	64.4531	73.5491	64.4531	73.5667	64.4531	73.517	64.4531	73.5389	64.4531	73.4797	64.4531	73.5056	64.4531	73.4386	64.4531	73.468	64.4531	73.3952	64.4531	73.4276	64.4531	73.3513	64.4531	73.386	64.4531	73.3087	64.4531	73.3446	64.4531	73.2689	64.4531	73.3048	64.4531	73.2335	64.4531	73.2679	64.4531	73.2034	64.4531	73.2348	64.4531	73.1791	64.4531	73.2063	64.4531	73.1609	64.4531	73.1827	64.4531	73.1484	64.4531	73.1642	64.4531	73.1414	64.4531	73.151	64.4531	73.1396	64.4531	73.1428
67.3828	74.5686	67.3828	74.562	67.3828	74.564	67.3828	74.5447	67.3828	74.5483	67.3828	74.5174	67.3828	74.522	67.3828	74.4813	67.3828	74.486	67.3828	74.4377	67.3828	74.4414	67.3828	74.3885	67.3828	74.3899	67.3828	74.3354	67.3828	74.3333	67.3828	74.2805	67.3828	74.2738	67.3828	74.2255	67.3828	74.2138	67.3828	74.1723	67.3828	74.1556	67.3828	74.1223	67.3828	74.1014	67.3828	74.0768	67.3828	74.0532	67.3828	74.0364	67.3828	74.0123	67.3828	74.0019	67.3828	73.9795	67.3828	73.9738	67.3828	73.955	67.3828	73.9524	67.3828	73.9389	67.3828	73.9379	67.3828	73.9309	67.3828	73.9307
68.8477	74.8997	68.8477	74.889	68.8477	74.8999	68.8477	74.8681	68.8477	74.8896	68.8477	74.8378	68.8477	74.8689	68.8477	74.7992	68.8477	74.8384	68.8477	74.7537	68.8477	74.7992	68.8477	74.7028	68.8477	74.7526	68.8477	74.6485	68.8477	74.7002	68.8477	74.5928	68.8477	74.6441	68.8477	74.5377	68.8477	74.5865	68.8477	74.4852	68.8477	74.5297	68.8477	74.4369	68.8477	74.4759	68.8477	74.3941	68.8477	74.427	68.8477	74.3577	68.8477	74.3845	68.8477	74.3282	68.8477	74.3492	68.8477	74.3059	68.8477	74.3214	68.8477	74.2909	68.8477	74.3011	68.8477	74.2829	68.8477	74.288	68.8477	74.282
71.7773	75.5866	71.7773	75.5744	71.7773	75.5892	71.7773	75.5532	71.7773	75.5824	71.7773	75.5235	71.7773	75.5664	71.7773	75.4865	71.7773	75.5418	71.7773	75.4433	71.7773	75.5096	71.7773	75.3958	71.7773	75.471	71.7773	75.3458	71.7773	75.4274	71.7773	75.2953	71.7773	75.3806	71.7773	75.2465	71.7773	75.3323	71.7773	75.2011	71.7773	75.2843	71.7773	75.1609	71.7773	75.2385	71.7773	75.1266	71.7773	75.1962	71.7773	75.0991	71.7773	75.1588	71.7773	75.0783	71.7773	75.127	71.7773	75.0642	71.7773	75.1011	71.7773	75.0564	71.7773	75.0811	71.7773	75.0544	71.7773	75.0668	71.7773	75.0579
74.707	76.2282	74.707	76.2248	74.707	76.2223	74.707	76.2122	74.707	76.2076	74.707	76.1907	74.707	76.1851	74.707	76.1614	74.707	76.1559	74.707	76.1255	74.707	76.1215	74.707	76.0847	74.707	76.0838	74.707	76.041	74.707	76.0443	74.707	75.9963	74.707	76.0048	74.707	75.9528	74.707	75.9667	74.707	75.9123	74.707	75.9312	74.707	75.8762	74.707	75.899	74.707	75.8455	74.707	75.8707	74.707	75.8209	74.707	75.8465	74.707	75.8023	74.707	75.8262	74.707	75.7896	74.707	75.8097	74.707	75.7823	74.707	75.7968	74.707	75.7798	74.707	75.7874	74.707	75.7817
77.6367	76.9899	77.6367	76.9902	77.6367	76.9803	77.6367	76.9814	77.6367	76.962	77.6367	76.9638	77.6367	76.9359	77.6367	76.9385	77.6367	76.9033	77.6367	76.9068	77.6367	76.8658	77.6367	76.8704	77.6367	76.8253	77.6367	76.8314	77.6367	76.7837	77.6367	76.7916	77.6367	76.7429	77.6367	76.7529	77.6367	76.7048	77.6367	76.7169	77.6367	76.6705	77.6367	76.6845	77.6367	76.6412	77.6367	76.6565	77.6367	76.6171	77.6367	76.6331	77.6367	76.5985	77.6367	76.6141	77.6367	76.5851	77.6367	76.599	77.6367	76.5763	77.6367	76.5874	77.6367	76.5718	77.6367	76.5789	77.6367	76.571	77.6367	76.5734
79.1016	77.3674	79.1016	77.3674	79.1016	77.357	79.1016	77.3569	79.1016	77.3367	79.1016	77.3366	79.1016	77.3073	79.1016	77.3075	79.1016	77.2703	79.1016	77.2713	79.1016	77.2274	79.1016	77.23	79.1016	77.1808	79.1016	77.1856	79.1016	77.1327	79.1016	77.1406	79.1016	77.0853	79.1016	77.097	79.1016	77.0409	79.1016	77.0567	79.1016	77.0012	79.1016	77.021	79.1016	76.9675	79.1016	76.9905	79.1016	76.9405	79.1016	76.9655	79.1016	76.9204	79.1016	76.9455	79.1016	76.9067	79.1016	76.9298	79.1016	76.8989	79.1016	76.9176	79.1016	76.896	79.1016	76.9082	79.1016	76.897	79.1016	76.9013
82.0312	78.1527	82.0312	78.1472	82.0312	78.146	82.0312	78.1296	82.0312	78.1279	82.0312	78.1002	82.0312	78.0991	82.0312	78.0599	82.0312	78.0609	82.0312	78.01	82.0312	78.0149	82.0312	77.9527	82.0312	77.963	82.0312	77.8903	82.0312	77.9072	82.0312	77.8258	82.0312	77.8497	82.0312	77.762	82.0312	77.7927	82.0312	77.702	82.0312	77.7382	82.0312	77.6479	82.0312	77.6876	82.0312	77.6017	82.0312	77.6423	82.0312	77.5641	82.0312	77.6028	82.0312	77.5353	82.0312	77.5695	82.0312	77.5151	82.0312	77.5425	82.0312	77.5028	82.0312	77.5219	82.0312	77.4977	82.0312	77.5075	82.0312	77.4994
84.9609	78.7842	84.9609	78.7702	84.9609	78.7879	84.9609	78.7462	84.9609	78.7813	84.9609	78.7128	84.9609	78.7644	84.9609	78.6703	84.9609	78.7377	84.9609	78.6199	84.9609	78.7019	84.9609	78.5624	84.9609	78.6581	84.9609	78.4996	84.9609	78.6078	84.9609	78.4335	84.9609	78.5527	84.9609	78.3666	84.9609	78.4947	84.9609	78.3016	84.9609	78.4356	84.9609	78.2415	84.9609	78.3769	84.9609	78.1886	84.9609	78.3202	84.9609	78.1448	84.9609	78.2666	84.9609	78.1114	84.9609	78.2174	84.9609	78.0889	84.9609	78.1738	84.9609	78.0776	84.9609	78.1368	84.9609	78.0773	84.9609	78.1077	84.9609	78.0875
87.8906	78.8173	87.8906	78.7978	87.8906	78.836	87.8906	78.7788	87.8906	78.853	87.8906	78.762	87.8906	78.8676	87.8906	78.7488	87.8906	78.8799	87.8906	78.7406	87.8906	78.8903	87.8906	78.7387	87.8906	78.8998	87.8906	78.744	87.8906	78.9099	87.8906	78.7574	87.8906	78.9219	87.8906	78.779	87.8906	78.9372	87.8906	78.8089	87.8906	78.957	87.8906	78.8463	87.8906	78.9814	87.8906	78.8898	87.8906	79.0097	87.8906	78.9373	87.8906	79.0401	87.8906	78.9856	87.8906	79.07	87.8906	79.0312	87.8906	79.0958	87.8906	79.0704	87.8906	79.1142	87.8906	79.0999	87.8906	79.122	87.8906	79.1175
90.8203	79.9061	90.8203	79.8931	90.8203	79.9115	90.8203	79.8735	90.8203	79.9087	90.8203	79.8488	90.8203	79.898	90.8203	79.8208	90.8203	79.8802	90.8203	79.7917	90.8203	79.8567	90.8203	79.7636	90.8203	79.8295	90.8203	79.7385	90.8203	79.8008	90.8203	79.7181	90.8203	79.7729	90.8203	79.7034	90.8203	79.748	90.8203	79.6949	90.8203	79.7278	90.8203	79.6923	90.8203	79.7133	90.8203	79.6947	90.8203	79.7051	90.8203	79.7007	90.8203	79.7026	90.8203	79.7086	90.8203	79.705	90.8203	79.7167	90.8203	79.7105	90.8203	79.7232	90.8203	79.7172	90.8203	79.7267	90.8203	79.7232	90.8203	79.7267
95.2148	80.8887	95.2148	80.9004	95.2148	80.8633	95.2148	80.8971	95.2148	80.8267	95.2148	80.8788	95.2148	80.782	95.2148	80.8468	95.2148	80.7327	95.2148	80.8039	95.2148	80.6826	95.2148	80.7538	95.2148	80.6352	95.2148	80.7011	95.2148	80.5933	95.2148	80.6504	95.2148	80.5593	95.2148	80.6056	95.2148	80.5342	95.2148	80.5697	95.2148	80.5183	95.2148	80.5439	95.2148	80.5106	95.2148	80.5278	95.2148	80.5096	95.2148	80.5202	95.2148	80.513	95.2148	80.5187	95.2148	80.5186	95.2148	80.5212	95.2148	80.5246	95.2148	80.5253	95.2148	80.5293	95.2148	80.5293	95.2148	80.5318	95.2148	80.5317
98.1445	81.6133	98.1445	81.6337	98.1445	81.5782	98.1445	81.6381	98.1445	81.5307	98.1445	81.626	98.1445	81.4737	98.1445	81.598	98.1445	81.4109	98.1445	81.5558	98.1445	81.3457	98.1445	81.5017	98.1445	81.2817	98.1445	81.4389	98.1445	81.2216	98.1445	81.3711	98.1445	81.1676	98.1445	81.3024	98.1445	81.1207	98.1445	81.2362	98.1445	81.0814	98.1445	81.1756	98.1445	81.0493	98.1445	81.1225	98.1445	81.0235	98.1445	81.0777	98.1445	81.0033	98.1445	81.0414	98.1445	80.9877	98.1445	81.013	98.1445	80.9764	98.1445	80.992	98.1445	80.9694	98.1445	80.9776	98.1445	80.9669	98.1445	80.9695
101.074	82.037	101.074	82.0468	101.074	82.0137	101.074	82.0431	101.074	81.9778	101.074	82.0268	101.074	81.9313	101.074	81.9994	101.074	81.877	101.074	81.9632	101.074	81.8186	101.074	81.9207	101.074	81.7599	101.074	81.8747	101.074	81.7048	101.074	81.8283	101.074	81.6569	101.074	81.7843	101.074	81.6186	101.074	81.7453	101.074	81.5912	101.074	81.713	101.074	81.5748	101.074	81.688	101.074	81.5682	101.074	81.67	101.074	81.5696	101.074	81.6575	101.074	81.5767	101.074	81.6484	101.074	81.5873	101.074	81.6406	101.074	81.5994	101.074	81.6323	101.074	81.6116	101.074	81.6227
105.469	82.6641	105.469	82.6699	105.469	82.6473	105.469	82.665	105.469	82.62	105.469	82.6501	105.469	82.5829	105.469	82.6264	105.469	82.5378	105.469	82.5956	105.469	82.487	105.469	82.5596	105.469	82.434	105.469	82.5208	105.469	82.3824	105.469	82.4818	105.469	82.3365	105.469	82.4455	105.469	82.3	105.469	82.4145	105.469	82.276	105.469	82.3909	105.469	82.2657	105.469	82.3759	105.469	82.2687	105.469	82.3694	105.469	82.2825	105.469	82.3699	105.469	82.3036	105.469	82.3744	105.469	82.3274	105.469	82.3795	105.469	82.3498	105.469	82.3816	105.469	82.3673	105.469	82.378
108.398	83.2579	108.398	83.2548	108.398	83.2483	108.398	83.2398	108.398	83.2259	108.398	83.2139	108.398	83.1914	108.398	83.1785	108.398	83.146	108.398	83.1353	108.398	83.0918	108.398	83.0866	108.398	83.0318	108.398	83.0344	108.398	82.9696	108.398	82.9813	108.398	82.9094	108.398	82.9302	108.398	82.8552	108.398	82.8838	108.398	82.8109	108.398	82.8448	108.398	82.7791	108.398	82.8149	108.398	82.7606	108.398	82.7952	108.398	82.7544	108.398	82.7848	108.398	82.7576	108.398	82.7819	108.398	82.7662	108.398	82.7835	108.398	82.7759	108.398	82.7861	108.398	82.7834	108.398	82.7867
112.793	83.955	112.793	83.9538	112.793	83.9452	112.793	83.9425	112.793	83.9244	112.793	83.9224	112.793	83.8928	112.793	83.8953	112.793	83.8515	112.793	83.8633	112.793	83.8022	112.793	83.8286	112.793	83.7471	112.793	83.7931	112.793	83.6888	112.793	83.7585	112.793	83.6305	112.793	83.7262	112.793	83.5754	112.793	83.6969	112.793	83.5267	112.793	83.6706	112.793	83.4873	112.793	83.6469	112.793	83.4593	112.793	83.6249	112.793	83.4437	112.793	83.6036	112.793	83.4404	112.793	83.5818	112.793	83.4478	112.793	83.5589	112.793	83.4637	112.793	83.5345	112.793	83.4851	112.793	83.5095
117.188	84.6019	117.188	84.6062	117.188	84.5844	117.188	84.5976	117.188	84.5549	117.188	84.5772	117.188	84.5152	117.188	84.5473	117.188	84.4684	117.188	84.5106	117.188	84.4179	117.188	84.4706	117.188	84.3675	117.188	84.4306	117.188	84.3206	117.188	84.3938	117.188	84.2805	117.188	84.3629	117.188	84.2498	117.188	84.3397	117.188	84.23	117.188	84.3249	117.188	84.2218	117.188	84.3183	117.188	84.2245	117.188	84.3184	117.188	84.2365	117.188	84.3228	117.188	84.2549	117.188	84.3287	117.188	84.2764	117.188	84.333	117.188	84.2975	117.188	84.3332	117.188	84.3152	117.188	84.3274
120.117	85.0557	120.117	85.0554	120.117	85.0403	120.117	85.0402	120.117	85.0098	120.117	85.0117	120.117	84.9657	120.117	84.9725	120.117	84.9108	120.117	84.9257	120.117	84.8486	120.117	84.8747	120.117	84.7831	120.117	84.8228	120.117	84.7184	120.117	84.7728	120.117	84.6585	120.117	84.7272	120.117	84.6072	120.117	84.688	120.117	84.5671	120.117	84.6561	120.117	84.5399	120.117	84.6322	120.117	84.526	120.117	84.6156	120.117	84.5239	120.117	84.6053	120.117	84.531	120.117	84.5993	120.117	84.5439	120.117	84.5952	120.117	84.5588	120.117	84.5906	120.117	84.5726	120.117	84.5834
124.512	85.7277	124.512	85.715	124.512	85.7223	124.512	85.6854	124.512	85.6987	124.512	85.6414	124.512	85.6583	124.512	85.586	124.512	85.6033	124.512	85.5231	124.512	85.5371	124.512	85.4569	124.512	85.4636	124.512	85.3913	124.512	85.3872	124.512	85.3296	124.512	85.3124	124.512	85.2745	124.512	85.2431	124.512	85.2275	124.512	85.1828	124.512	85.189	124.512	85.1339	124.512	85.1584	124.512	85.0975	124.512	85.1348	124.512	85.0736	124.512	85.1167	124.512	85.0606	124.512	85.1026	124.512	85.0565	124.512	85.0912	124.512	85.0586	124.512	85.0813	124.512	85.0645	124.512	85.0723
128.906	86.0894	128.906	86.0847	128.906	86.0768	128.906	86.0636	128.906	86.0474	128.906	86.0279	128.906	86.0024	128.906	85.9805	128.906	85.9442	128.906	85.9249	128.906	85.8757	128.906	85.865	128.906	85.8006	128.906	85.8049	128.906	85.723	128.906	85.7481	128.906	85.6469	128.906	85.6973	128.906	85.5765	128.906	85.6538	128.906	85.5154	128.906	85.6178	128.906	85.4666	128.906	85.5885	128.906	85.4321	128.906	85.5642	128.906	85.4124	128.906	85.5431	128.906	85.4062	128.906	85.5235	128.906	85.4114	128.906	85.504	128.906	85.4247	128.906	85.484	128.906	85.443	128.906	85.4633
133.301	86.326	133.301	86.3336	133.301	86.3032	133.301	86.3257	133.301	86.2672	133.301	86.3031	133.301	86.2206	133.301	86.2682	133.301	86.167	133.301	86.2245	133.301	86.1102	133.301	86.1764	133.301	86.0539	133.301	86.1284	133.301	86.0013	133.301	86.0848	133.301	85.9549	133.301	86.0489	133.301	85.9166	133.301	86.0223	133.301	85.8874	133.301	86.005	133.301	85.8681	133.301	85.9951	133.301	85.8586	133.301	85.99	133.301	85.8584	133.301	85.9863	133.301	85.8666	133.301	85.9812	133.301	85.8814	133.301	85.9725	133.301	85.9005	133.301	85.9593	133.301	85.9216	133.301	85.9419
139.16	86.7792	139.16	86.7848	139.16	86.7542	139.16	86.7711	139.16	86.711	139.16	86.7399	139.16	86.6521	139.16	86.6944	139.16	86.5814	139.16	86.6388	139.16	86.5037	139.16	86.5784	139.16	86.4246	139.16	86.5184	139.16	86.35	139.16	86.4641	139.16	86.2857	139.16	86.4195	139.16	86.2365	139.16	86.3872	139.16	86.2055	139.16	86.3676	139.16	86.1936	139.16	86.3595	139.16	86.1996	139.16	86.3599	139.16	86.2199	139.16	86.3652	139.16	86.2495	139.16	86.3713	139.16	86.2829	139.16	86.3745	139.16	86.3151	139.16	86.3718	139.16	86.342	139.16	86.3612
143.555	87.1798	143.555	87.1759	143.555	87.1616	143.555	87.1506	143.555	87.1222	143.555	87.1063	143.555	87.0642	143.555	87.047	143.555	86.9913	143.555	86.9777	143.555	86.9086	143.555	86.9047	143.555	86.8215	143.555	86.8341	143.555	86.7357	143.555	86.7714	143.555	86.6568	143.555	86.7207	143.555	86.5899	143.555	86.684	143.555	86.5386	143.555	86.6609	143.555	86.5054	143.555	86.6493	143.555	86.4907	143.555	86.6456	143.555	86.4932	143.555	86.6457	143.555	86.5094	143.555	86.6456	143.555	86.5346	143.555	86.642	143.555	86.5638	143.555	86.6323	143.555	86.592	143.555	86.6155
147.949	87.5601	147.949	87.5521	147.949	87.542	147.949	87.5199	147.949	87.4979	147.949	87.4671	147.949	87.4301	147.949	87.3985	147.949	87.3425	147.949	87.32	147.949	87.2411	147.949	87.2378	147.949	87.1324	147.949	87.1581	147.949	87.0236	147.949	87.0861	147.949	86.9214	147.949	87.0258	147.949	86.8319	147.949	86.9791	147.949	86.7596	147.949	86.9456	147.949	86.7076	147.949	86.9229	147.949	86.6769	147.949	86.9071	147.949	86.6669	147.949	86.8937	147.949	86.6752	147.949	86.8786	147.949	86.6977	147.949	86.8589	147.949	86.7295	147.949	86.833	147.949	86.7656	147.949	86.8012
153.809	87.5773	153.809	87.5788	153.809	87.5519	153.809	87.5572	153.809	87.5027	153.809	87.5145	153.809	87.4313	153.809	87.4536	153.809	87.3407	153.809	87.3788	153.809	87.2356	153.809	87.2957	153.809	87.1221	153.809	87.2105	153.809	87.0079	153.809	87.1299	153.809	86.9008	153.809	87.0597	153.809	86.8089	153.809	87.004	153.809	86.7383	153.809	86.9642	153.809	86.693	153.809	86.9392	153.809	86.6738	153.809	86.9253	153.809	86.6783	153.809	86.9175	153.809	86.7016	153.809	86.9105	153.809	86.7372	153.809	86.8995	153.809	86.7784	153.809	86.8812	153.809	86.8189	153.809	86.8541
159.668	87.4165	159.668	87.4091	159.668	87.4042	159.668	87.3825	159.668	87.3733	159.668	87.3389	159.668	87.326	159.668	87.2824	159.668	87.2658	159.668	87.2184	159.668	87.1969	159.668	87.1531	159.668	87.1246	159.668	87.0927	159.668	87.0545	159.668	87.0428	159.668	86.9925	159.668	87.0077	159.668	86.9436	159.668	86.9901	159.668	86.9117	159.668	86.9906	159.668	86.8989	159.668	87.0074	159.668	86.9052	159.668	87.0359	159.668	86.9284	159.668	87.0695	159.668	86.9645	159.668	87.1004	159.668	87.0079	159.668	87.1215	159.668	87.052	159.668	87.1276	159.668	87.0903	159.668	87.1168
165.527	87.6393	165.527	87.6299	165.527	87.6291	165.527	87.602	165.527	87.5997	165.527	87.5577	165.527	87.5524	165.527	87.5002	165.527	87.4901	165.527	87.434	165.527	87.4168	165.527	87.3643	165.527	87.338	165.527	87.297	165.527	87.2596	165.527	87.2379	165.527	87.1881	165.527	87.1916	165.527	87.1292	165.527	87.1612	165.527	87.0873	165.527	87.1475	165.527	87.0649	165.527	87.1489	165.527	87.0624	165.527	87.162	165.527	87.0775	165.527	87.182	165.527	87.1057	165.527	87.2033	165.527	87.141	165.527	87.2202	165.527	87.1763	165.527	87.2279	165.527	87.2053	165.527	87.2231
171.387	87.6968	171.387	87.6904	171.387	87.6818	171.387	87.6634	171.387	87.6464	171.387	87.6182	171.387	87.5927	171.387	87.5595	171.387	87.5239	171.387	87.4935	171.387	87.444	171.387	87.4269	171.387	87.3578	171.387	87.3661	171.387	87.2709	171.387	87.3162	171.387	87.1895	171.387	87.2799	171.387	87.1198	171.387	87.2575	171.387	87.0668	171.387	87.247	171.387	87.034	171.387	87.2449	171.387	87.0224	171.387	87.2472	171.387	87.0304	171.387	87.2495	171.387	87.0542	171.387	87.2482	171.387	87.0886	171.387	87.2403	171.387	87.1277	171.387	87.2241	171.387	87.1659	171.387	87.1989
177.246	87.775	177.246	87.7642	177.246	87.7529	177.246	87.7213	177.246	87.6998	177.246	87.6494	177.246	87.6198	177.246	87.5543	177.246	87.5192	177.246	87.4442	177.246	87.4063	177.246	87.3291	177.246	87.2901	177.246	87.2203	177.246	87.1797	177.246	87.1281	177.246	87.0832	177.246	87.0604	177.246	87.0071	177.246	87.0206	177.246	86.9556	177.246	87.0075	177.246	86.9302	177.246	87.0157	177.246	86.9294	177.246	87.0374	177.246	86.9488	177.246	87.0645	177.246	86.9821	177.246	87.0899	177.246	87.0216	177.246	87.1081	177.246	87.0598	177.246	87.1154	177.246	87.0905	177.246	87.1096
183.105	87.6863	183.105	87.6862	183.105	87.6541	183.105	87.655	183.105	87.5906	183.105	87.5962	183.105	87.4998	183.105	87.5154	183.105	87.388	183.105	87.4198	183.105	87.2637	183.105	87.3182	183.105	87.137	183.105	87.2197	183.105	87.0183	183.105	87.1336	183.105	86.917	183.105	87.0671	183.105	86.8404	183.105	87.0251	183.105	86.7931	183.105	87.0081	183.105	86.7762	183.105	87.0129	183.105	86.7877	183.105	87.0329	183.105	86.8232	183.105	87.0595	183.105	86.8757	183.105	87.0844	183.105	86.9368	183.105	87.1	183.105	86.997	183.105	87.1009	183.105	87.048	183.105	87.0836
188.965	87.5284	188.965	87.5311	188.965	87.4908	188.965	87.5004	188.965	87.419	188.965	87.4394	188.965	87.3156	188.965	87.3534	188.965	87.1861	188.965	87.2496	188.965	87.0386	188.965	87.1372	188.965	86.8844	188.965	87.0267	188.965	86.737	188.965	86.9294	188.965	86.6106	188.965	86.8554	188.965	86.5179	188.965	86.812	188.965	86.4672	188.965	86.8014	188.965	86.4606	188.965	86.8205	188.965	86.494	188.965	86.8603	188.965	86.5588	188.965	86.9085	188.965	86.6435	188.965	86.9516	188.965	86.7362	188.965	86.9781	188.965	86.8253	188.965	86.98	188.965	86.9006	188.965	86.9538
196.289	87.604	196.289	87.5851	196.289	87.5841	196.289	87.5298	196.289	87.5258	196.289	87.4424	196.289	87.4315	196.289	87.3299	196.289	87.3061	196.289	87.2013	196.289	87.1566	196.289	87.0671	196.289	86.9922	196.289	86.9382	196.289	86.8239	196.289	86.8249	196.289	86.6637	196.289	86.7346	196.289	86.5244	196.289	86.6714	196.289	86.4176	196.289	86.6354	196.289	86.3519	196.289	86.623	196.289	86.3306	196.289	86.6281	196.289	86.3505	196.289	86.6432	196.289	86.4022	196.289	86.6605	196.289	86.4715	196.289	86.6718	196.289	86.5435	196.289	86.6695	196.289	86.6051	196.289	86.648
203.613	87.5283	203.613	87.506	203.613	87.508	203.613	87.4419	203.613	87.4466	203.613	87.3396	203.613	87.3482	203.613	87.2058	203.613	87.2192	203.613	87.0499	203.613	87.068	203.613	86.8832	203.613	86.9049	203.613	86.7187	203.613	86.7408	203.613	86.5694	203.613	86.5863	203.613	86.4465	203.613	86.4505	203.613	86.3579	203.613	86.3401	203.613	86.3063	203.613	86.2596	203.613	86.2885	203.613	86.2109	203.613	86.2961	203.613	86.1936	203.613	86.3177	203.613	86.2041	203.613	86.3418	203.613	86.2349	203.613	86.3584	203.613	86.2758	203.613	86.3609	203.613	86.3161	203.613	86.3464
210.938	87.5214	210.938	87.4978	210.938	87.5061	210.938	87.4377	210.938	87.4519	210.938	87.3452	210.938	87.3611	210.938	87.2262	210.938	87.2391	210.938	87.088	210.938	87.0943	210.938	86.9395	210.938	86.9376	210.938	86.7903	210.938	86.7815	210.938	86.6502	210.938	86.6381	210.938	86.5285	210.938	86.5172	210.938	86.4324	210.938	86.4242	210.938	86.3655	210.938	86.3601	210.938	86.3275	210.938	86.322	210.938	86.3136	210.938	86.3052	210.938	86.3164	210.938	86.3042	210.938	86.3274	210.938	86.3133	210.938	86.3391	210.938	86.3268	210.938	86.3464	210.938	86.3392	210.938	86.3464
218.262	87.2565	218.262	87.241	218.262	87.2373	218.262	87.1931	218.262	87.1824	218.262	87.1171	218.262	87.0935	218.262	87.0186	218.262	86.9749	218.262	86.9052	218.262	86.8348	218.262	86.7861	218.262	86.6853	218.262	86.672	218.262	86.542	218.262	86.5733	218.262	86.4215	218.262	86.4995	218.262	86.3381	218.262	86.457	218.262	86.2999	218.262	86.448	218.262	86.3061	218.262	86.4691	218.262	86.3481	218.262	86.5123	218.262	86.4124	218.262	86.5659	218.262	86.4852	218.262	86.6177	218.262	86.555	218.262	86.6576	218.262	86.6137	218.262	86.6788	218.262	86.656	218.262	86.6783
225.586	87.1353	225.586	87.1404	225.586	87.09	225.586	87.106	225.586	87.0056	225.586	87.0357	225.586	86.8855	225.586	86.9357	225.586	86.7351	225.586	86.8158	225.586	86.5632	225.586	86.6886	225.586	86.3822	225.586	86.5681	225.586	86.208	225.586	86.4669	225.586	86.0589	225.586	86.3946	225.586	85.9527	225.586	86.3558	225.586	85.9024	225.586	86.3501	225.586	85.9119	225.586	86.373	225.586	85.9754	225.586	86.4169	225.586	86.0781	225.586	86.4714	225.586	86.2012	225.586	86.5248	225.586	86.3254	225.586	86.565	225.586	86.4347	225.586	86.5815	225.586	86.5173	225.586	86.5667
232.91	87.0609	232.91	87.0557	232.91	87.0175	232.91	87.0043	232.91	86.9258	232.91	86.9109	232.91	86.7884	232.91	86.7828	232.91	86.6112	232.91	86.6303	232.91	86.4037	232.91	86.4674	232.91	86.1801	232.91	86.3109	232.91	85.9588	232.91	86.1784	232.91	85.7614	232.91	86.0844	232.91	85.6094	232.91	86.0367	232.91	85.5192	232.91	86.0348	232.91	85.4977	232.91	86.0705	232.91	85.5413	232.91	86.1305	232.91	85.6377	232.91	86.1991	232.91	85.7693	232.91	86.2599	232.91	85.916	232.91	86.2978	232.91	86.058	232.91	86.3003	232.91	86.1772	232.91	86.2603
241.699	86.8389	241.699	86.8037	241.699	86.8308	241.699	86.7279	241.699	86.7787	241.699	86.616	241.699	86.6837	241.699	86.4748	241.699	86.5492	241.699	86.3138	241.699	86.3818	241.699	86.1455	241.699	86.1907	241.699	85.9855	241.699	85.9887	241.699	85.8503	241.699	85.791	241.699	85.7542	241.699	85.615	241.699	85.7042	241.699	85.4774	241.699	85.698	241.699	85.3914	241.699	85.7246	241.699	85.3635	241.699	85.7688	241.699	85.3911	241.699	85.8155	241.699	85.4625	241.699	85.8527	241.699	85.5601	241.699	85.8708	241.699	85.664	241.699	85.8628	241.699	85.7564	241.699	85.8246
250.488	86.8482	250.488	86.814	250.488	86.8254	250.488	86.7269	250.488	86.7432	250.488	86.5924	250.488	86.6022	250.488	86.4174	250.488	86.4075	250.488	86.2104	250.488	86.1704	250.488	85.9827	250.488	85.9102	250.488	85.7494	250.488	85.6535	250.488	85.5304	250.488	85.4309	250.488	85.3478	250.488	85.2696	250.488	85.2215	250.488	85.1856	250.488	85.162	250.488	85.1782	250.488	85.1675	250.488	85.2312	250.488	85.2245	250.488	85.3198	250.488	85.3137	250.488	85.4192	250.488	85.414	250.488	85.5097	250.488	85.5068	250.488	85.5778	250.488	85.5769	250.488	85.6143	250.488	85.6143
259.277	86.7322	259.277	86.7022	259.277	86.7054	259.277	86.6168	259.277	86.624	259.277	86.4818	259.277	86.493	259.277	86.3075	259.277	86.3182	259.277	86.1062	259.277	86.1063	259.277	85.8912	259.277	85.8645	259.277	85.6752	259.277	85.6024	259.277	85.4711	259.277	85.3346	259.277	85.2934	259.277	85.0842	259.277	85.1574	259.277	84.8826	259.277	85.0769	259.277	84.7626	259.277	85.0589	259.277	84.7458	259.277	85.1002	259.277	84.8295	259.277	85.1869	259.277	84.9849	259.277	85.297	259.277	85.1681	259.277	85.4036	259.277	85.3346	259.277	85.4788	259.277	85.4509	259.277	85.4992
268.066	86.4599	268.066	86.4011	268.066	86.4554	268.066	86.2827	268.066	86.3885	268.066	86.1142	268.066	86.2633	268.066	85.911	268.066	86.087	268.066	85.6927	268.066	85.8709	268.066	85.4807	268.066	85.6311	268.066	85.2943	268.066	85.3866	268.066	85.1469	268.066	85.1535	268.066	85.0451	268.066	84.942	268.066	84.9886	268.066	84.7572	268.066	84.9724	268.066	84.6063	268.066	84.989	268.066	84.5037	268.066	85.0282	268.066	84.4672	268.066	85.0772	268.066	84.5064	268.066	85.1193	268.066	84.6127	268.066	85.1361	268.066	84.7593	268.066	85.1107	268.066	84.9105	268.066	85.0341
276.855	86.2837	276.855	86.2576	276.855	86.2477	276.855	86.1662	276.855	86.1556	276.855	86.0105	276.855	86.0139	276.855	85.7973	276.855	85.8299	276.855	85.5409	276.855	85.6125	276.855	85.2634	276.855	85.3754	276.855	84.994	276.855	85.1409	276.855	84.765	276.855	84.9383	276.855	84.604	276.855	84.7964	276.855	84.5247	276.855	84.73	276.855	84.5214	276.855	84.7336	276.855	84.5734	276.855	84.7863	276.855	84.6553	276.855	84.8632	276.855	84.7476	276.855	84.9442	276.855	84.8399	276.855	85.0146	276.855	84.9271	276.855	85.0624	276.855	85.0028	276.855	85.0778	276.855	85.0565
287.109	86.1443	287.109	86.1288	287.109	86.1012	287.109	86.0615	287.109	85.9965	287.109	85.9506	287.109	85.8338	287.109	85.8041	287.109	85.6228	287.109	85.6308	287.109	85.3773	287.109	85.441	287.109	85.1125	287.109	85.2463	287.109	84.8455	287.109	85.0596	287.109	84.5943	287.109	84.8961	287.109	84.3772	287.109	84.7742	287.109	84.2109	287.109	84.7112	287.109	84.1094	287.109	84.7137	287.109	84.0815	287.109	84.7686	287.109	84.1264	287.109	84.8441	287.109	84.2308	287.109	84.9037	287.109	84.3726	287.109	84.9206	287.109	84.5279	287.109	84.8845	287.109	84.6756	287.109	84.7992
297.363	86.2041	297.363	86.1393	297.363	86.1863	297.363	86.0085	297.363	86.0733	297.363	85.827	297.363	85.8627	297.363	85.609	297.363	85.5654	297.363	85.3705	297.363	85.2044	297.363	85.1339	297.363	84.812	297.363	84.9268	297.363	84.4286	297.363	84.7745	297.363	84.1036	297.363	84.6894	297.363	83.8863	297.363	84.6654	297.363	83.806	297.363	84.6855	297.363	83.856	297.363	84.7341	297.363	84.0019	297.363	84.8025	297.363	84.2038	297.363	84.8853	297.363	84.4296	297.363	84.9725	297.363	84.6533	297.363	85.0472	297.363	84.8495	297.363	85.0877	297.363	84.9946	297.363	85.0742
307.617	86.1043	307.617	86.0421	307.617	86.1203	307.617	85.9213	307.617	86.091	307.617	85.7264	307.617	86.0055	307.617	85.4511	307.617	85.8512	307.617	85.1068	307.617	85.6237	307.617	84.725	307.617	85.3299	307.617	84.3549	307.617	84.9859	307.617	84.0548	307.617	84.6146	307.617	83.8734	307.617	84.2519	307.617	83.8275	307.617	83.9512	307.617	83.8957	307.617	83.7716	307.617	84.0346	307.617	83.7467	307.617	84.2034	307.617	83.8595	307.617	84.3727	307.617	84.0525	307.617	84.5204	307.617	84.2628	307.617	84.6268	307.617	84.447	307.617	84.6763	307.617	84.5833	307.617	84.6616
319.336	85.9668	319.336	85.8507	319.336	85.9888	319.336	85.6572	319.336	85.9108	319.336	85.4084	319.336	85.7353	319.336	85.1228	319.336	85.4713	319.336	84.8085	319.336	85.1379	319.336	84.4656	319.336	84.77	319.336	84.097	319.336	84.4175	319.336	83.7239	319.336	84.1293	319.336	83.3952	319.336	83.9298	319.336	83.1794	319.336	83.8127	319.336	83.1324	319.336	83.7568	319.336	83.2616	319.336	83.7472	319.336	83.52	319.336	83.7811	319.336	83.8315	319.336	83.8605	319.336	84.1191	319.336	83.9822	319.336	84.3235	319.336	84.132	319.336	84.4134	319.336	84.2816	319.336	84.3898
329.59	85.4521	329.59	85.4289	329.59	85.4367	329.59	85.3578	329.59	85.3856	329.59	85.2313	329.59	85.291	329.59	85.0491	329.59	85.1357	329.59	84.8182	329.59	84.9015	329.59	84.5481	329.59	84.5819	329.59	84.247	329.59	84.1944	329.59	83.9249	329.59	83.785	329.59	83.6017	329.59	83.4156	329.59	83.3119	329.59	83.1387	329.59	83.099	329.59	82.9779	329.59	83.0008	329.59	82.9336	329.59	83.0353	329.59	83.0018	329.59	83.194	329.59	83.1757	329.59	83.4381	329.59	83.428	329.59	83.7008	329.59	83.6976	329.59	83.9032	329.59	83.9035	329.59	83.9798
341.309	85.6727	341.309	85.6235	341.309	85.6173	341.309	85.477	341.309	85.4557	341.309	85.2451	341.309	85.1945	341.309	84.9443	341.309	84.8484	341.309	84.598	341.309	84.4369	341.309	84.237	341.309	83.9831	341.309	83.8959	341.309	83.5185	341.309	83.6047	341.309	83.0921	341.309	83.3812	341.309	82.7719	341.309	83.2316	341.309	82.6226	341.309	83.155	341.309	82.6711	341.309	83.146	341.309	82.888	341.309	83.1951	341.309	83.2032	341.309	83.2926	341.309	83.5353	341.309	83.4319	341.309	83.8118	341.309	83.6053	341.309	83.9816	341.309	83.7907	341.309	84.0229	341.309	83.9466
353.027	85.6205	353.027	85.539	353.027	85.6153	353.027	85.3835	353.027	85.5114	353.027	85.162	353.027	85.3046	353.027	84.8795	353.027	85.0053	353.027	84.545	353.027	84.6375	353.027	84.1789	353.027	84.229	353.027	83.8155	353.027	83.7999	353.027	83.4964	353.027	83.3585	353.027	83.2573	353.027	82.9153	353.027	83.1152	353.027	82.5057	353.027	83.0656	353.027	82.1999	353.027	83.0889	353.027	82.073	353.027	83.1565	353.027	82.1475	353.027	83.2357	353.027	82.3676	353.027	83.2958	353.027	82.6398	353.027	83.3161	353.027	82.8888	353.027	83.2883	353.027	83.0803	353.027	83.2111
366.211	85.5518	366.211	85.4342	366.211	85.5815	366.211	85.2291	366.211	85.5234	366.211	84.9411	366.211	85.3749	366.211	84.582	366.211	85.132	366.211	84.1709	366.211	84.7966	366.211	83.7344	366.211	84.3863	366.211	83.3076	366.211	83.9412	366.211	82.9342	366.211	83.5151	366.211	82.6623	366.211	83.1533	366.211	82.5304	366.211	82.8725	366.211	82.5504	366.211	82.669	366.211	82.6978	366.211	82.5469	366.211	82.9211	366.211	82.5298	366.211	83.1619	366.211	82.6375	366.211	83.3716	366.211	82.8526	366.211	83.5153	366.211	83.1159	366.211	83.5681	366.211	83.355	366.211	83.5145
379.395	85.6489	379.395	85.5548	379.395	85.6439	379.395	85.3674	379.395	85.5409	379.395	85.0931	379.395	85.348	379.395	84.7354	379.395	85.0726	379.395	84.2985	379.395	84.7145	379.395	83.7992	379.395	84.271	379.395	83.2796	379.395	83.7556	379.395	82.8078	379.395	83.2173	379.395	82.46	379.395	82.7418	379.395	82.2849	379.395	82.4189	379.395	82.2837	379.395	82.2941	379.395	82.4217	379.395	82.3495	379.395	82.6539	379.395	82.5336	379.395	82.9347	379.395	82.7934	379.395	83.2163	379.395	83.0802	379.395	83.45	379.395	83.3441	379.395	83.595	379.395	83.5377	379.395	83.6263
392.578	85.5441	392.578	85.4521	392.578	85.5275	392.578	85.2618	392.578	85.4014	392.578	84.9868	392.578	85.1761	392.578	84.6376	392.578	84.8701	392.578	84.2186	392.578	84.5009	392.578	83.7345	392.578	84.0763	392.578	83.2055	392.578	83.5969	392.578	82.6802	392.578	83.0756	392.578	82.2315	392.578	82.5613	392.578	81.927	392.578	82.1399	392.578	81.7939	392.578	81.8932	392.578	81.8144	392.578	81.8454	392.578	81.9524	392.578	81.9569	392.578	82.1715	392.578	82.1644	392.578	82.4291	392.578	82.4114	392.578	82.6704	392.578	82.6472	392.578	82.8382	392.578	82.8216	392.578	82.8922
405.762	85.7022	405.762	85.5116	405.762	85.778	405.762	85.2101	405.762	85.7327	405.762	84.8108	405.762	85.5554	405.762	84.3404	405.762	85.2389	405.762	83.832	405.762	84.7902	405.762	83.3094	405.762	84.234	405.762	82.7881	405.762	83.6091	405.762	82.2998	405.762	82.9666	405.762	81.9169	405.762	82.3788	405.762	81.7306	405.762	81.9437	405.762	81.7747	405.762	81.7498	405.762	81.9771	405.762	81.8049	405.762	82.2113	405.762	82.016	405.762	82.3843	405.762	82.258	405.762	82.4749	405.762	82.4464	405.762	82.5142	405.762	82.5522	405.762	82.5414	405.762	82.5841	405.762	82.5702
420.41	85.9881	420.41	85.9421	420.41	85.9334	420.41	85.7833	420.41	85.7774	420.41	85.4899	420.41	85.5106	420.41	85.0405	420.41	85.1232	420.41	84.4288	420.41	84.6164	420.41	83.6789	420.41	84.0126	420.41	82.8565	420.41	83.3587	420.41	82.0673	420.41	82.7161	420.41	81.4318	420.41	82.1391	420.41	81.0369	420.41	81.6598	420.41	80.9011	420.41	81.3024	420.41	80.9857	420.41	81.1094	420.41	81.2285	420.41	81.1271	420.41	81.5596	420.41	81.3475	420.41	81.9041	420.41	81.6843	420.41	82.1898	420.41	82.0223	420.41	82.3624	420.41	82.2736	420.41	82.3924
435.059	85.6931	435.059	85.6206	435.059	85.6698	435.059	85.4542	435.059	85.5524	435.059	85.1945	435.059	85.3448	435.059	84.8342	435.059	85.0493	435.059	84.3593	435.059	84.667	435.059	83.7612	435.059	84.1985	435.059	83.0548	435.059	83.6476	435.059	82.2909	435.059	83.0287	435.059	81.5647	435.059	82.3813	435.059	81.0173	435.059	81.7856	435.059	80.8	435.059	81.3579	435.059	80.9744	435.059	81.21	435.059	81.4388	435.059	81.3795	435.059	82.0006	435.059	81.7898	435.059	82.5023	435.059	82.288	435.059	82.8686	435.059	82.7266	435.059	83.0805	435.059	83.0174	435.059	83.1334
451.172	86.2927	451.172	86.1549	451.172	86.2713	451.172	85.8698	451.172	86.0947	451.172	85.4652	451.172	85.7758	451.172	84.9772	451.172	85.3255	451.172	84.4364	451.172	84.7509	451.172	83.8565	451.172	84.0709	451.172	83.2394	451.172	83.3418	451.172	82.6026	451.172	82.6647	451.172	82.0073	451.172	82.1494	451.172	81.5425	451.172	81.8438	451.172	81.2583	451.172	81.7014	451.172	81.1416	451.172	81.6387	451.172	81.1756	451.172	81.6186	451.172	81.3656	451.172	81.6669	451.172	81.6785	451.172	81.8111	451.172	82.0123	451.172	82.0226	451.172	82.2495	451.172	82.2223	451.172	82.3191
465.82	85.9197	465.82	85.8766	465.82	85.8706	465.82	85.7091	465.82	85.7512	465.82	85.3966	465.82	85.559	465.82	84.9409	465.82	85.2724	465.82	84.3584	465.82	84.8656	465.82	83.671	465.82	84.318	465.82	82.9105	465.82	83.6233	465.82	82.1408	465.82	82.8107	465.82	81.4729	465.82	81.98	465.82	81.0352	465.82	81.3085	465.82	80.9019	465.82	80.967	465.82	81.0546	465.82	80.9861	465.82	81.4139	465.82	81.2542	465.82	81.8798	465.82	81.6389	465.82	82.3464	465.82	82.0531	465.82	82.715	465.82	82.4398	465.82	82.9149	465.82	82.7466	465.82	82.9198
483.398	86.2014	483.398	86.0724	483.398	86.2184	483.398	85.8392	483.398	86.117	483.398	85.5181	483.398	85.8839	483.398	85.1273	483.398	85.5004	483.398	84.6684	483.398	84.959	483.398	84.1113	483.398	84.2797	483.398	83.4102	483.398	83.5068	483.398	82.5569	483.398	82.6898	483.398	81.644	483.398	81.8711	483.398	80.8697	483.398	81.1104	483.398	80.4287	483.398	80.5302	483.398	80.378	483.398	80.298	483.398	80.6526	483.398	80.4971	483.398	81.1552	483.398	81.0304	483.398	81.7615	483.398	81.6918	483.398	82.3192	483.398	82.2871	483.398	82.6993	483.398	82.6876	483.398	82.83
499.512	86.206	499.512	86.0185	499.512	86.2622	499.512	85.7549	499.512	86.1481	499.512	85.4357	499.512	85.8708	499.512	85.0283	499.512	85.4627	499.512	84.4859	499.512	84.9402	499.512	83.7992	499.512	84.2905	499.512	83.0149	499.512	83.5044	499.512	82.2172	499.512	82.626	499.512	81.5095	499.512	81.7736	499.512	81.0181	499.512	81.1041	499.512	80.8514	499.512	80.7363	499.512	80.9881	499.512	80.7022	499.512	81.2738	499.512	80.9539	499.512	81.5793	499.512	81.3847	499.512	81.8761	499.512	81.8572	499.512	82.1651	499.512	82.2488	499.512	82.4063	499.512	82.4826	499.512	82.5301
517.09	86.335	517.09	86.2613	517.09	86.2661	517.09	86.0168	517.09	86.089	517.09	85.5981	517.09	85.8293	517.09	85.0339	517.09	85.4907	517.09	84.3609	517.09	85.0484	517.09	83.5884	517.09	84.4621	517.09	82.698	517.09	83.7082	517.09	81.7035	517.09	82.8148	517.09	80.751	517.09	81.8777	517.09	80.1384	517.09	81.0473	517.09	80.074	517.09	80.4792	517.09	80.4256	517.09	80.2684	517.09	80.9151	517.09	80.4135	517.09	81.3871	517.09	80.829	517.09	81.8128	517.09	81.3793	517.09	82.1807	517.09	81.9167	517.09	82.4338	517.09	82.315	517.09	82.4935
536.133	85.9259	536.133	85.8659	536.133	85.8432	536.133	85.6391	536.133	85.6533	536.133	85.2589	536.133	85.3741	536.133	84.7758	536.133	85.0001	536.133	84.2491	536.133	84.5202	536.133	83.7025	536.133	83.9294	536.133	83.096	536.133	83.2182	536.133	82.3453	536.133	82.3745	536.133	81.4022	536.133	81.4272	536.133	80.3773	536.133	80.5023	536.133	79.6244	536.133	79.8222	536.133	79.5277	536.133	79.6173	536.133	80.0514	536.133	79.963	536.133	80.8115	536.133	80.6614	536.133	81.4911	536.133	81.3814	536.133	81.96	536.133	81.9066	536.133	82.2118	536.133	82.1935	536.133	82.2844
555.176	86.0687	555.176	85.9819	555.176	86.1137	555.176	85.8564	555.176	86.081	555.176	85.6464	555.176	85.9317	555.176	85.2709	555.176	85.6391	555.176	84.6536	555.176	85.1849	555.176	83.7648	555.176	84.5583	555.176	82.6431	555.176	83.7604	555.176	81.4029	555.176	82.8009	555.176	80.2403	555.176	81.6932	555.176	79.4138	555.176	80.5063	555.176	79.1196	555.176	79.4976	555.176	79.32	555.176	79.0724	555.176	79.8085	555.176	79.3457	555.176	80.4248	555.176	80.0272	555.176	81.089	555.176	80.8136	555.176	81.7032	555.176	81.5245	555.176	82.1285	555.176	82.0353	555.176	82.2511
574.219	86.4813	574.219	86.2667	574.219	86.5309	574.219	85.9394	574.219	86.3651	574.219	85.5113	574.219	85.9889	574.219	84.9722	574.219	85.4649	574.219	84.3322	574.219	84.8589	574.219	83.6167	574.219	84.183	574.219	82.8034	574.219	83.3794	574.219	81.7917	574.219	82.3652	574.219	80.4952	574.219	81.1261	574.219	79.061	574.219	79.8157	574.219	78.0477	574.219	78.7581	574.219	77.9757	574.219	78.2751	574.219	78.6059	574.219	78.4811	574.219	79.4587	574.219	79.2449	574.219	80.3344	574.219	80.2671	574.219	81.142	574.219	81.2136	574.219	81.7505	574.219	81.8363	574.219	82.0145
594.727	86.9866	594.727	86.9748	594.727	86.9048	594.727	86.8075	594.727	86.7705	594.727	86.4711	594.727	86.5594	594.727	86.0015	594.727	86.2114	594.727	85.4133	594.727	85.6906	594.727	84.6535	594.727	85.0066	594.727	83.6521	594.727	84.1794	594.727	82.4036	594.727	83.1863	594.727	80.9865	594.727	81.9624	594.727	79.5387	594.727	80.4551	594.727	78.3078	594.727	78.6884	594.727	77.7161	594.727	76.928	594.727	78.0224	594.727	76.0138	594.727	78.9145	594.727	76.6447	594.727	79.8353	594.727	77.9597	594.727	80.3908	594.727	79.0179	594.727	80.4604	594.727	79.6954	594.727	80.1692
615.234	86.6538	615.234	86.6397	615.234	86.6108	615.234	86.5464	615.234	86.5	615.234	86.3303	615.234	86.3083	615.234	85.9607	615.234	86.0417	615.234	85.4375	615.234	85.6931	615.234	84.7877	615.234	85.2139	615.234	84.0415	615.234	84.5438	615.234	83.1936	615.234	83.6659	615.234	82.1993	615.234	82.6294	615.234	81.0402	615.234	81.5238	615.234	79.8272	615.234	80.443	615.234	78.893	615.234	79.4908	615.234	78.6602	615.234	78.8176	615.234	79.1141	615.234	78.5898	615.234	79.7581	615.234	78.8559	615.234	80.2271	615.234	79.4385	615.234	80.4388	615.234	80.0257	615.234	80.3805
637.207	86.0284	637.207	85.9027	637.207	86.0716	637.207	85.7291	637.207	85.9785	637.207	85.4898	637.207	85.7367	637.207	85.1568	637.207	85.3878	637.207	84.7395	637.207	84.9827	637.207	84.2501	637.207	84.5229	637.207	83.6337	637.207	83.9454	637.207	82.7851	637.207	83.1654	637.207	81.649	637.207	82.1433	637.207	80.3402	637.207	80.948	637.207	79.2103	637.207	79.7807	637.207	78.6057	637.207	78.8878	637.207	78.4742	637.207	78.489	637.207	78.6667	637.207	78.7458	637.207	79.2176	637.207	79.5232	637.207	79.9945	637.207	80.3659	637.207	80.6649	637.207	80.8985	637.207	80.9952
659.18	85.2898	659.18	85.2437	659.18	85.2952	659.18	85.0974	659.18	85.2494	659.18	84.7925	659.18	85.1136	659.18	84.373	659.18	84.866	659.18	83.9383	659.18	84.4853	659.18	83.4709	659.18	83.938	659.18	82.8183	659.18	83.2065	659.18	81.8917	659.18	82.3091	659.18	80.7962	659.18	81.2955	659.18	79.7412	659.18	80.225	659.18	78.8382	659.18	79.1361	659.18	78.2235	659.18	78.1513	659.18	78.3401	659.18	77.746	659.18	79.2904	659.18	78.2566	659.18	80.4134	659.18	79.1398	659.18	81.1316	659.18	79.8908	659.18	81.2865	659.18	80.4896	659.18	80.9966
682.617	85.4207	682.617	85.3998	682.617	85.455	682.617	85.3434	682.617	85.4265	682.617	85.1175	682.617	85.2252	682.617	84.6532	682.617	84.8222	682.617	84.0453	682.617	84.3261	682.617	83.4565	682.617	83.8997	682.617	82.8919	682.617	83.5434	682.617	82.137	682.617	83.0224	682.617	80.9773	682.617	82.053	682.617	79.4858	682.617	80.5663	682.617	78.177	682.617	78.993	682.617	77.6714	682.617	78.1162	682.617	78.0346	682.617	78.0139	682.617	78.8557	682.617	78.3121	682.617	79.7077	682.617	79.0101	682.617	80.3605	682.617	79.9353	682.617	80.7679	682.617	80.6414	682.617	80.8998
707.52	85.5636	707.52	85.42	707.52	85.5256	707.52	85.1034	707.52	85.4023	707.52	84.7587	707.52	85.2637	707.52	84.4975	707.52	85.0912	707.52	84.2324	707.52	84.818	707.52	83.794	707.52	84.3828	707.52	83.1595	707.52	83.7579	707.52	82.4413	707.52	82.9635	707.52	81.6557	707.52	82.0403	707.52	80.732	707.52	80.9928	707.52	79.7868	707.52	79.8214	707.52	79.2211	707.52	78.713	707.52	79.2596	707.52	78.1984	707.52	79.6254	707.52	78.705	707.52	80.0584	707.52	79.8381	707.52	80.522	707.52	80.8655	707.52	81.0029	707.52	81.3872	707.52	81.3699
732.422	86.3881	732.422	86.2953	732.422	86.4123	732.422	86.1699	732.422	86.3043	732.422	85.9154	732.422	86.0727	732.422	85.4149	732.422	85.7555	732.422	84.7199	732.422	85.3581	732.422	84.017	732.422	84.8691	732.422	83.3589	732.422	84.2609	732.422	82.5478	732.422	83.4579	732.422	81.3897	732.422	82.4203	732.422	79.9937	732.422	81.2877	732.422	78.7768	732.422	80.2573	732.422	78.1958	732.422	79.3229	732.422	78.5734	732.422	78.6125	732.422	79.7964	732.422	78.766	732.422	81.1571	732.422	79.7742	732.422	82.0054	732.422	80.7926	732.422	82.1767	732.422	81.4548	732.422	81.9025
757.324	87.57	757.324	87.3778	757.324	87.5658	757.324	87.0089	757.324	87.4142	757.324	86.5527	757.324	87.1375	757.324	86.072	757.324	86.7146	757.324	85.5569	757.324	86.1453	757.324	84.9563	757.324	85.4566	757.324	84.1822	757.324	84.6766	757.324	83.1088	757.324	83.825	757.324	81.6283	757.324	82.8303	757.324	79.7496	757.324	81.4803	757.324	77.8712	757.324	79.7535	757.324	76.9596	757.324	78.3302	757.324	77.4537	757.324	77.9638	757.324	78.8943	757.324	78.506	757.324	80.695	757.324	79.6348	757.324	82.1766	757.324	80.9718	757.324	82.8932	757.324	82.109	757.324	82.8119
785.156	87.7893	785.156	87.6583	785.156	87.9166	785.156	87.4922	785.156	87.9119	785.156	87.1516	785.156	87.7049	785.156	86.6361	785.156	87.3512	785.156	86.0651	785.156	86.8984	785.156	85.4284	785.156	86.3422	785.156	84.6054	785.156	85.6774	785.156	83.5887	785.156	84.8571	785.156	82.4145	785.156	83.7431	785.156	80.9675	785.156	82.2014	785.156	79.1284	785.156	80.219	785.156	77.158	785.156	78.0897	785.156	76.3696	785.156	76.9445	785.156	77.6916	785.156	77.5787	785.156	79.2412	785.156	78.9193	785.156	80.0579	785.156	80.1237	785.156	80.4801	785.156	80.8013	785.156	80.8136
811.523	87.8717	811.523	87.7649	811.523	87.8603	811.523	87.4544	811.523	87.7677	811.523	87.0336	811.523	87.5039	811.523	86.6434	811.523	87.0948	811.523	86.2229	811.523	86.6991	811.523	85.6613	811.523	86.3231	811.523	84.9616	811.523	85.7955	811.523	84.0424	811.523	84.9998	811.523	82.6504	811.523	83.8815	811.523	80.7134	811.523	82.3298	811.523	78.632	811.523	80.4734	811.523	77.1547	811.523	78.7517	811.523	76.7526	811.523	77.2464	811.523	77.376	811.523	76.5318	811.523	78.7444	811.523	77.8881	811.523	80.1598	811.523	79.7115	811.523	80.9946	811.523	80.7648	811.523	81.1545
840.82	87.4756	840.82	87.3102	840.82	87.4844	840.82	87.089	840.82	87.2917	840.82	86.7503	840.82	87.0395	840.82	86.2137	840.82	86.8586	840.82	85.6231	840.82	86.6483	840.82	85.1472	840.82	86.2105	840.82	84.6156	840.82	85.6041	840.82	83.7869	840.82	85.0048	840.82	82.7728	840.82	84.3277	840.82	81.7329	840.82	83.2406	840.82	80.346	840.82	81.469	840.82	78.1859	840.82	79.0164	840.82	76.3091	840.82	76.8207	840.82	77.3507	840.82	76.49	840.82	79.2646	840.82	77.925	840.82	80.102	840.82	79.7293	840.82	80.4074	840.82	80.751	840.82	80.7739
870.117	87.6959	870.117	87.7133	870.117	87.657	870.117	87.4185	870.117	87.6331	870.117	86.7806	870.117	87.3381	870.117	86.1413	870.117	86.6982	870.117	85.7256	870.117	86.091	870.117	85.3289	870.117	85.7925	870.117	84.7595	870.117	85.4871	870.117	84.1181	870.117	84.8098	870.117	83.3066	870.117	83.8642	870.117	81.7941	870.117	82.8201	870.117	79.4196	870.117	81.3832	870.117	77.5398	870.117	79.397	870.117	77.6992	870.117	77.9782	870.117	78.5363	870.117	78.3874	870.117	79.8643	870.117	79.6433	870.117	81.4788	870.117	80.7092	870.117	82.3199	870.117	81.5183	870.117	82.1735
900.879	88.1995	900.879	87.8687	900.879	88.1878	900.879	87.4193	900.879	87.9703	900.879	87.1335	900.879	87.7343	900.879	86.861	900.879	87.4094	900.879	86.2722	900.879	86.8949	900.879	85.3943	900.879	86.3065	900.879	84.5023	900.879	85.7808	900.879	83.6338	900.879	85.1608	900.879	82.6646	900.879	84.1262	900.879	81.6675	900.879	82.6502	900.879	80.5305	900.879	81.0267	900.879	78.6853	900.879	79.1557	900.879	76.7996	900.879	76.9199	900.879	77.4509	900.879	76.5461	900.879	79.2246	900.879	78.141	900.879	80.594	900.879	79.7862	900.879	81.5194	900.879	81.1161	900.879	81.7694
933.105	88.0834	933.105	87.9877	933.105	88.0547	933.105	87.7264	933.105	87.8201	933.105	87.2612	933.105	87.3896	933.105	86.6829	933.105	86.8703	933.105	86.0742	933.105	86.2869	933.105	85.3885	933.105	85.6642	933.105	84.6781	933.105	85.1459	933.105	84.0492	933.105	84.6903	933.105	83.2682	933.105	83.9991	933.105	81.883	933.105	82.8742	933.105	79.6515	933.105	81.2455	933.105	76.8099	933.105	79.1383	933.105	75.1751	933.105	77.1779	933.105	76.5826	933.105	76.6107	933.105	78.8598	933.105	78.0643	933.105	80.7137	933.105	80.1355	933.105	81.8717	933.105	81.5889	933.105	82.1757
965.332	88.4711	965.332	88.3533	965.332	88.3675	965.332	88.0347	965.332	88.1515	965.332	87.5716	965.332	87.8188	965.332	86.932	965.332	87.2675	965.332	86.1688	965.332	86.6159	965.332	85.4712	965.332	86.0851	965.332	84.8751	965.332	85.5858	965.332	84.1727	965.332	84.9736	965.332	83.1999	965.332	84.2935	965.332	82.0497	965.332	83.402	965.332	80.7514	965.332	81.8761	965.332	78.9084	965.332	79.41	965.332	76.5023	965.332	76.4568	965.332	76.5544	965.332	75.548	965.332	78.7374	965.332	76.9946	965.332	79.9217	965.332	79.2245	965.332	80.5221	965.332	80.8137	965.332	81.059
1,000.49	88.2976	1,000.49	87.9655	1,000.49	88.3187	1,000.49	87.6047	1,000.49	87.7979	1,000.49	87.1837	1,000.49	87.0122	1,000.49	86.5725	1,000.49	86.4249	1,000.49	85.8544	1,000.49	85.9103	1,000.49	85.2461	1,000.49	85.1622	1,000.49	84.8568	1,000.49	84.427	1,000.49	84.5887	1,000.49	83.9489	1,000.49	84.0446	1,000.49	83.4759	1,000.49	82.8018	1,000.49	82.7712	1,000.49	80.7939	1,000.49	81.4716	1,000.49	78.6783	1,000.49	79.0012	1,000.49	77.6735	1,000.49	75.6561	1,000.49	77.1313	1,000.49	74.9857	1,000.49	77.7084	1,000.49	77.8114	1,000.49	80.0681	1,000.49	79.7912	1,000.49	81.7774	1,000.49	80.9025	1,000.49	81.7975
1,035.64	88.5286	1,035.64	88.6967	1,035.64	87.9359	1,035.64	88.0593	1,035.64	87.7285	1,035.64	87.1938	1,035.64	87.6993	1,035.64	86.6291	1,035.64	87.0979	1,035.64	85.9559	1,035.64	86.0348	1,035.64	84.9208	1,035.64	85.1582	1,035.64	84.2001	1,035.64	84.3814	1,035.64	83.8857	1,035.64	83.5422	1,035.64	83.048	1,035.64	83.051	1,035.64	81.6835	1,035.64	82.4929	1,035.64	80.4314	1,035.64	81.0429	1,035.64	78.3775	1,035.64	79.2494	1,035.64	75.2281	1,035.64	77.8344	1,035.64	75.9478	1,035.64	75.824	1,035.64	78.4575	1,035.64	75.4453	1,035.64	79.8717	1,035.64	77.9295	1,035.64	80.6865	1,035.64	79.9929	1,035.64	80.8657
1,072.27	87.8343	1,072.27	87.8789	1,072.27	87.8599	1,072.27	87.436	1,072.27	87.9504	1,072.27	86.6529	1,072.27	87.3454	1,072.27	85.9521	1,072.27	86.1283	1,072.27	85.2214	1,072.27	85.1906	1,072.27	84.336	1,072.27	84.5022	1,072.27	83.4788	1,072.27	83.7482	1,072.27	82.9373	1,072.27	83.4526	1,072.27	82.7208	1,072.27	83.3664	1,072.27	82.0936	1,072.27	82.5843	1,072.27	80.324	1,072.27	81.009	1,072.27	77.888	1,072.27	78.6166	1,072.27	76.5603	1,072.27	75.4565	1,072.27	77.1096	1,072.27	74.4408	1,072.27	78.3277	1,072.27	76.5116	1,072.27	79.6589	1,072.27	78.8812	1,072.27	80.8051	1,072.27	80.5823	1,072.27	81.2172
1,108.89	88.2613	1,108.89	87.8133	1,108.89	88.162	1,108.89	87.3313	1,108.89	87.5387	1,108.89	86.8263	1,108.89	86.8655	1,108.89	85.8168	1,108.89	86.1883	1,108.89	84.4871	1,108.89	85.3338	1,108.89	83.5698	1,108.89	84.3623	1,108.89	83.1087	1,108.89	83.1998	1,108.89	82.566	1,108.89	82.1435	1,108.89	81.5928	1,108.89	81.8561	1,108.89	80.2429	1,108.89	81.4366	1,108.89	79.1998	1,108.89	79.6426	1,108.89	78.1712	1,108.89	77.5327	1,108.89	75.5857	1,108.89	75.9332	1,108.89	74.8253	1,108.89	73.53	1,108.89	77.475	1,108.89	75.3634	1,108.89	79.3683	1,108.89	78.112	1,108.89	80.234	1,108.89	79.5074	1,108.89	80.251
1,148.44	87.7629	1,148.44	87.8564	1,148.44	87.7524	1,148.44	87.5748	1,148.44	87.4448	1,148.44	86.4933	1,148.44	86.7335	1,148.44	85.3581	1,148.44	85.7528	1,148.44	84.6279	1,148.44	84.5736	1,148.44	83.5089	1,148.44	83.7128	1,148.44	82.1992	1,148.44	83.1637	1,148.44	81.5568	1,148.44	82.3852	1,148.44	81.0255	1,148.44	81.6626	1,148.44	79.8766	1,148.44	81.243	1,148.44	78.0217	1,148.44	80.5636	1,148.44	75.6311	1,148.44	78.6767	1,148.44	73.0604	1,148.44	75.0078	1,148.44	72.461	1,148.44	71.9312	1,148.44	76.1006	1,148.44	72.4712	1,148.44	78.0719	1,148.44	76.032	1,148.44	78.4748	1,148.44	78.6914	1,148.44	78.9895
1,189.45	87.4726	1,189.45	87.1537	1,189.45	87.6892	1,189.45	86.831	1,189.45	87.4477	1,189.45	86.14	1,189.45	86.8185	1,189.45	85.0023	1,189.45	86.0752	1,189.45	83.7476	1,189.45	85.1151	1,189.45	82.4763	1,189.45	83.9377	1,189.45	81.5348	1,189.45	82.8757	1,189.45	81.1325	1,189.45	81.9464	1,189.45	80.2977	1,189.45	81.3745	1,189.45	79.0905	1,189.45	80.9915	1,189.45	78.3373	1,189.45	79.5977	1,189.45	76.3328	1,189.45	77.4083	1,189.45	72.4907	1,189.45	75.4766	1,189.45	73.2575	1,189.45	72.4582	1,189.45	75.1995	1,189.45	74.3602	1,189.45	77.87	1,189.45	77.1425	1,189.45	80.3027	1,189.45	78.732	1,189.45	80.32
1,230.47	89.3572	1,230.47	88.9916	1,230.47	89.3717	1,230.47	88.4256	1,230.47	89.0384	1,230.47	87.7099	1,230.47	88.4085	1,230.47	86.4998	1,230.47	87.5431	1,230.47	84.9695	1,230.47	86.2845	1,230.47	83.7156	1,230.47	84.5886	1,230.47	82.5297	1,230.47	83.3559	1,230.47	81.4935	1,230.47	83.1403	1,230.47	81.2581	1,230.47	82.5967	1,230.47	81.1326	1,230.47	81.6036	1,230.47	79.7623	1,230.47	81.1645	1,230.47	77.1911	1,230.47	79.8199	1,230.47	73.9463	1,230.47	76.2913	1,230.47	71.7264	1,230.47	72.3085	1,230.47	76.5803	1,230.47	73.214	1,230.47	78.9723	1,230.47	77.3305	1,230.47	79.8645	1,230.47	79.9388	1,230.47	80.5206
1,274.41	90.6106	1,274.41	90.2026	1,274.41	90.4412	1,274.41	89.3759	1,274.41	90.1218	1,274.41	88.7635	1,274.41	89.4602	1,274.41	87.8716	1,274.41	88.5083	1,274.41	86.2737	1,274.41	87.5265	1,274.41	84.6885	1,274.41	86.2319	1,274.41	83.9049	1,274.41	84.9646	1,274.41	83.4298	1,274.41	83.836	1,274.41	82.7858	1,274.41	83.1571	1,274.41	82.1034	1,274.41	83.1892	1,274.41	81.2182	1,274.41	82.2314	1,274.41	79.1041	1,274.41	80.3346	1,274.41	74.5837	1,274.41	78.0283	1,274.41	70.7906	1,274.41	73.5453	1,274.41	74.4565	1,274.41	73.4816	1,274.41	78.9898	1,274.41	77.8031	1,274.41	81.4008	1,274.41	80.3184	1,274.41	81.4074
1,319.82	90.2584	1,319.82	90.037	1,319.82	90.1749	1,319.82	89.2994	1,319.82	89.7426	1,319.82	88.5113	1,319.82	89.1585	1,319.82	87.5625	1,319.82	88.3482	1,319.82	86.4944	1,319.82	86.5931	1,319.82	85.3518	1,319.82	85.1126	1,319.82	83.7453	1,319.82	84.2309	1,319.82	82.7737	1,319.82	83.0815	1,319.82	82.2125	1,319.82	82.308	1,319.82	81.5608	1,319.82	81.9656	1,319.82	80.8867	1,319.82	82.0148	1,319.82	79.5906	1,319.82	81.2736	1,319.82	75.8242	1,319.82	78.4044	1,319.82	70.6679	1,319.82	72.3403	1,319.82	74.7805	1,319.82	69.877	1,319.82	78.002	1,319.82	77.1315	1,319.82	81.5023	1,319.82	80.7017	1,319.82	82.2113
1,366.7	90.6964	1,366.7	90.6237	1,366.7	90.6601	1,366.7	90.11	1,366.7	90.4234	1,366.7	89.0758	1,366.7	89.7465	1,366.7	88.0394	1,366.7	88.7121	1,366.7	86.618	1,366.7	87.4026	1,366.7	84.7349	1,366.7	85.1602	1,366.7	83.0062	1,366.7	83.3699	1,366.7	81.2799	1,366.7	82.7389	1,366.7	80.7605	1,366.7	81.5924	1,366.7	81.1574	1,366.7	81.5057	1,366.7	81.1953	1,366.7	81.4186	1,366.7	79.6889	1,366.7	80.2452	1,366.7	75.2707	1,366.7	79.0035	1,366.7	70.8945	1,366.7	74.8134	1,366.7	73.3505	1,366.7	67.0825	1,366.7	77.1647	1,366.7	73.2024	1,366.7	80.1147	1,366.7	75.8338	1,366.7	79.586
1,413.57	89.7507	1,413.57	89.7055	1,413.57	89.6405	1,413.57	89.2597	1,413.57	89.4098	1,413.57	88.1745	1,413.57	88.5231	1,413.57	86.8707	1,413.57	87.0774	1,413.57	85.9279	1,413.57	85.5975	1,413.57	84.3738	1,413.57	84.3646	1,413.57	82.7228	1,413.57	82.8269	1,413.57	81.2163	1,413.57	80.8109	1,413.57	80.9001	1,413.57	81.5536	1,413.57	81.5722	1,413.57	82.5475	1,413.57	80.963	1,413.57	80.48	1,413.57	80.1922	1,413.57	78.9439	1,413.57	78.1939	1,413.57	78.2857	1,413.57	73.4175	1,413.57	75.0315	1,413.57	71.3953	1,413.57	71.8713	1,413.57	76.0997	1,413.57	72.6673	1,413.57	77.971	1,413.57	77.7476	1,413.57	77.9773
1,463.38	88.4695	1,463.38	88.626	1,463.38	88.4627	1,463.38	88.6165	1,463.38	87.5787	1,463.38	87.7871	1,463.38	86.9639	1,463.38	85.8373	1,463.38	86.4962	1,463.38	84.2942	1,463.38	84.8954	1,463.38	82.7659	1,463.38	82.8216	1,463.38	79.1211	1,463.38	80.1573	1,463.38	78.9162	1,463.38	77.9161	1,463.38	78.7403	1,463.38	76.5687	1,463.38	77.9265	1,463.38	76.153	1,463.38	77.2497	1,463.38	77.6019	1,463.38	75.9442	1,463.38	76.8405	1,463.38	74.1483	1,463.38	73.6506	1,463.38	68.2232	1,463.38	70.2477	1,463.38	75.9251	1,463.38	66.9665	1,463.38	78.0799	1,463.38	74.8377	1,463.38	76.8712	1,463.38	78.239	1,463.38	79.2642
1,516.11	87.4764	1,516.11	86.7692	1,516.11	87.0933	1,516.11	85.6804	1,516.11	87.0353	1,516.11	84.9297	1,516.11	86.2633	1,516.11	84.7679	1,516.11	84.7206	1,516.11	83.2945	1,516.11	83.9309	1,516.11	80.2887	1,516.11	82.429	1,516.11	78.2491	1,516.11	80.5378	1,516.11	76.0221	1,516.11	78.454	1,516.11	75.7072	1,516.11	77.1066	1,516.11	76.9015	1,516.11	78.0217	1,516.11	76.6013	1,516.11	77.7192	1,516.11	76.3733	1,516.11	76.5288	1,516.11	75.3066	1,516.11	75.0888	1,516.11	71.2363	1,516.11	71.3624	1,516.11	66.6147	1,516.11	69.5674	1,516.11	75.5352	1,516.11	64.753	1,516.11	76.4329	1,516.11	73.4142	1,516.11	74.6788
1,568.85	87.0644	1,568.85	86.7321	1,568.85	87.2818	1,568.85	85.8716	1,568.85	86.6324	1,568.85	84.9116	1,568.85	85.9502	1,568.85	83.6587	1,568.85	85.4881	1,568.85	82.4024	1,568.85	84.4557	1,568.85	81.0937	1,568.85	83.4643	1,568.85	77.727	1,568.85	82.4249	1,568.85	75.3961	1,568.85	80.4165	1,568.85	73.5417	1,568.85	78.2924	1,568.85	73.8214	1,568.85	77.4941	1,568.85	76.6244	1,568.85	77.4002	1,568.85	75.0564	1,568.85	77.5446	1,568.85	72.202	1,568.85	75.7951	1,568.85	66.8587	1,568.85	74.2903	1,568.85	69.7946	1,568.85	68.1471	1,568.85	74.4999	1,568.85	73.5046	1,568.85	76.5394	1,568.85	74.2501	1,568.85	75.2728
1,624.51	87.801	1,624.51	86.7024	1,624.51	87.638	1,624.51	86.0743	1,624.51	86.9906	1,624.51	85.4333	1,624.51	85.7431	1,624.51	83.8268	1,624.51	85.2176	1,624.51	82.5462	1,624.51	84.3268	1,624.51	80.9186	1,624.51	81.7784	1,624.51	79.8628	1,624.51	80.5214	1,624.51	77.5576	1,624.51	78.5224	1,624.51	75.2313	1,624.51	76.3777	1,624.51	75.4707	1,624.51	74.4081	1,624.51	74.2115	1,624.51	75.4035	1,624.51	73.4276	1,624.51	75.9848	1,624.51	73.6521	1,624.51	74.9762	1,624.51	68.5393	1,624.51	74.0182	1,624.51	65.0702	1,624.51	65.5227	1,624.51	71.8988	1,624.51	72.8231	1,624.51	76.9888	1,624.51	74.516	1,624.51	78.0976
1,681.64	88.3055	1,681.64	87.4106	1,681.64	88.1918	1,681.64	87.0657	1,681.64	86.9616	1,681.64	85.9731	1,681.64	86.7246	1,681.64	84.0732	1,681.64	85.833	1,681.64	82.997	1,681.64	83.7254	1,681.64	80.7077	1,681.64	82.2053	1,681.64	80.3966	1,681.64	78.22	1,681.64	78.1112	1,681.64	77.1599	1,681.64	75.3288	1,681.64	76.9253	1,681.64	74.2803	1,681.64	73.803	1,681.64	72.9434	1,681.64	77.4253	1,681.64	72.3385	1,681.64	78.9997	1,681.64	71.3636	1,681.64	77.3643	1,681.64	69.0119	1,681.64	72.1781	1,681.64	58.8998	1,681.64	68.2895	1,681.64	69.6017	1,681.64	73.3134	1,681.64	77.5341	1,681.64	74.6057	1,681.64	77.408
1,741.7	88.2998	1,741.7	88.317	1,741.7	88.2714	1,741.7	87.3599	1,741.7	87.31	1,741.7	87.1878	1,741.7	86.9782	1,741.7	86.4118	1,741.7	85.5762	1,741.7	84.2476	1,741.7	84.7709	1,741.7	82.2127	1,741.7	83.7215	1,741.7	80.0252	1,741.7	80.6023	1,741.7	78.3261	1,741.7	79.5951	1,741.7	74.7736	1,741.7	79.3112	1,741.7	73.0874	1,741.7	78.7343	1,741.7	75.9171	1,741.7	77.0245	1,741.7	75.9114	1,741.7	75.2305	1,741.7	77.6912	1,741.7	74.0576	1,741.7	72.7042	1,741.7	73.1076	1,741.7	68.5219	1,741.7	69.1097	1,741.7	72.2339	1,741.7	68.2482	1,741.7	75.3995	1,741.7	76.42	1,741.7	76.7035
1,803.22	88.0396	1,803.22	87.8015	1,803.22	87.9095	1,803.22	86.9163	1,803.22	87.4516	1,803.22	85.6602	1,803.22	86.4998	1,803.22	84.7796	1,803.22	85.1017	1,803.22	84.2725	1,803.22	83.2422	1,803.22	82.8229	1,803.22	82.9736	1,803.22	79.7906	1,803.22	81.7363	1,803.22	77.3023	1,803.22	78.41	1,803.22	77.2438	1,803.22	77.8764	1,803.22	75.6203	1,803.22	75.5686	1,803.22	73.9857	1,803.22	73.173	1,803.22	77.5978	1,803.22	73.9605	1,803.22	74.2465	1,803.22	74.8206	1,803.22	71.5567	1,803.22	70.6153	1,803.22	63.6059	1,803.22	64.687	1,803.22	73.7556	1,803.22	71.7917	1,803.22	76.7116	1,803.22	77.429	1,803.22	77.5768
1,866.21	87.5361	1,866.21	87.0042	1,866.21	86.8443	1,866.21	86.1981	1,866.21	85.8681	1,866.21	85.2822	1,866.21	85.1716	1,866.21	84.0491	1,866.21	83.8208	1,866.21	82.0342	1,866.21	83.8663	1,866.21	80.4118	1,866.21	81.8311	1,866.21	79.6205	1,866.21	80.6882	1,866.21	79.092	1,866.21	79.0686	1,866.21	75.0351	1,866.21	76.2143	1,866.21	73.688	1,866.21	72.4136	1,866.21	75.6442	1,866.21	74.6759	1,866.21	76.8812	1,866.21	76.0534	1,866.21	77.3043	1,866.21	72.9783	1,866.21	72.3919	1,866.21	74.3036	1,866.21	68.1357	1,866.21	55.8909	1,866.21	71.6148	1,866.21	66.7244	1,866.21	75.9313	1,866.21	69.1128	1,866.21	75.1252
1,932.13	86.9021	1,932.13	86.5555	1,932.13	86.6549	1,932.13	85.6315	1,932.13	86.1428	1,932.13	85.0114	1,932.13	84.9921	1,932.13	82.6946	1,932.13	85.3452	1,932.13	81.193	1,932.13	83.9651	1,932.13	81.9239	1,932.13	81.7739	1,932.13	81.0801	1,932.13	81.3992	1,932.13	78.9477	1,932.13	79.5437	1,932.13	76.228	1,932.13	77.2596	1,932.13	72.2374	1,932.13	75.4878	1,932.13	74.7412	1,932.13	72.5361	1,932.13	74.3113	1,932.13	71.1325	1,932.13	74.7809	1,932.13	75.2975	1,932.13	72.3091	1,932.13	74.4644	1,932.13	65.1191	1,932.13	68.632	1,932.13	71.2881	1,932.13	63.9749	1,932.13	72.7278	1,932.13	74.2622	1,932.13	73.3608
1,999.51	87.9807	1,999.51	87.2992	1,999.51	88.1446	1,999.51	86.4805	1,999.51	87.176	1,999.51	84.2139	1,999.51	85.9483	1,999.51	82.4687	1,999.51	84.1595	1,999.51	80.4807	1,999.51	83.5388	1,999.51	79.8908	1,999.51	82.8957	1,999.51	79.2098	1,999.51	80.9635	1,999.51	77.9441	1,999.51	78.808	1,999.51	75.8814	1,999.51	78.6959	1,999.51	74.2661	1,999.51	75.0074	1,999.51	70.3263	1,999.51	75.9923	1,999.51	74.1829	1,999.51	77.4898	1,999.51	72.277	1,999.51	78.1363	1,999.51	72.8555	1,999.51	74.8428	1,999.51	63.2415	1,999.51	74.5172	1,999.51	71.5243	1,999.51	72.294	1,999.51	74.5941	1,999.51	70.9114	1,999.51	74.2951
2,069.82	88.699	2,069.82	88.2648	2,069.82	88.0211	2,069.82	86.8153	2,069.82	87.7085	2,069.82	85.5163	2,069.82	86.7758	2,069.82	83.8026	2,069.82	85.0881	2,069.82	82.6225	2,069.82	83.9556	2,069.82	79.9567	2,069.82	83.0151	2,069.82	78.9404	2,069.82	81.9987	2,069.82	77.7436	2,069.82	80.1743	2,069.82	75.3986	2,069.82	77.7645	2,069.82	75.0941	2,069.82	75.5866	2,069.82	68.8164	2,069.82	73.3758	2,069.82	69.5224	2,069.82	74.8149	2,069.82	73.9125	2,069.82	75.3866	2,069.82	70.0479	2,069.82	75.2168	2,069.82	66.0359	2,069.82	70.1249	2,069.82	67.6217	2,069.82	73.124	2,069.82	73.3308	2,069.82	74.9651	2,069.82	75.3428
2,143.07	88.7285	2,143.07	88.0688	2,143.07	88.3947	2,143.07	87.2587	2,143.07	87.108	2,143.07	85.3681	2,143.07	86.1697	2,143.07	83.7857	2,143.07	83.6614	2,143.07	81.7157	2,143.07	82.8578	2,143.07	80.3384	2,143.07	81.7411	2,143.07	78.7999	2,143.07	80.0681	2,143.07	80.2235	2,143.07	78.9529	2,143.07	79.2346	2,143.07	78.4508	2,143.07	75.649	2,143.07	76.2886	2,143.07	74.1491	2,143.07	73.1826	2,143.07	69.0971	2,143.07	73.7787	2,143.07	74.1748	2,143.07	73.9938	2,143.07	71.1899	2,143.07	74.6034	2,143.07	66.0079	2,143.07	73.2186	2,143.07	71.5685	2,143.07	67.949	2,143.07	74.2864	2,143.07	75.439	2,143.07	75.2781
2,219.24	87.575	2,219.24	88.1385	2,219.24	87.192	2,219.24	86.8942	2,219.24	87.1734	2,219.24	85.5711	2,219.24	86.6513	2,219.24	84.8767	2,219.24	84.5292	2,219.24	82.3499	2,219.24	81.9139	2,219.24	80.9555	2,219.24	79.3214	2,219.24	81.1046	2,219.24	77.4287	2,219.24	79.4739	2,219.24	80.7727	2,219.24	78.9394	2,219.24	78.36	2,219.24	75.7856	2,219.24	73.5875	2,219.24	75.8917	2,219.24	72.9139	2,219.24	76.5645	2,219.24	67.9556	2,219.24	68.5393	2,219.24	70.1503	2,219.24	73.1831	2,219.24	70.3141	2,219.24	69.7924	2,219.24	60.4278	2,219.24	67.6995	2,219.24	60.43	2,219.24	72.209	2,219.24	69.5377	2,219.24	75.2306
2,296.88	87.3307	2,296.88	87.1904	2,296.88	87.3131	2,296.88	86.882	2,296.88	86.7119	2,296.88	84.6882	2,296.88	85.8267	2,296.88	83.3012	2,296.88	85.1387	2,296.88	80.7997	2,296.88	84.2147	2,296.88	77.0368	2,296.88	82.8481	2,296.88	77.194	2,296.88	79.9469	2,296.88	79.5405	2,296.88	75.6366	2,296.88	76.7351	2,296.88	78.2065	2,296.88	76.3676	2,296.88	77.1804	2,296.88	72.8278	2,296.88	74.8693	2,296.88	73.6042	2,296.88	70.5561	2,296.88	75.4899	2,296.88	73.47	2,296.88	71.7006	2,296.88	70.3658	2,296.88	65.4404	2,296.88	68.4294	2,296.88	68.3396	2,296.88	56.1973	2,296.88	74.4225	2,296.88	70.5939	2,296.88	68.8784
2,378.91	88.63	2,378.91	88.0431	2,378.91	88.8132	2,378.91	86.6131	2,378.91	88.442	2,378.91	85.7173	2,378.91	87.4191	2,378.91	84.4898	2,378.91	85.8118	2,378.91	82.6201	2,378.91	84.0987	2,378.91	81.2282	2,378.91	82.9849	2,378.91	77.5436	2,378.91	81.4101	2,378.91	74.6533	2,378.91	79.5268	2,378.91	77.6449	2,378.91	77.6874	2,378.91	74.6593	2,378.91	76.8333	2,378.91	66.9094	2,378.91	75.3129	2,378.91	66.2428	2,378.91	76.7779	2,378.91	71.9533	2,378.91	77.2842	2,378.91	71.2966	2,378.91	76.6543	2,378.91	70.0678	2,378.91	74.7298	2,378.91	64.8461	2,378.91	70.9268	2,378.91	74.3246	2,378.91	68.2233	2,378.91	74.831
2,462.4	90.0843	2,462.4	89.6172	2,462.4	89.9841	2,462.4	88.8354	2,462.4	89.3854	2,462.4	87.7114	2,462.4	88.438	2,462.4	86.3323	2,462.4	87.1138	2,462.4	84.734	2,462.4	85.2492	2,462.4	82.9498	2,462.4	83.7549	2,462.4	80.897	2,462.4	81.8497	2,462.4	79.0885	2,462.4	80.6015	2,462.4	78.6015	2,462.4	79.4433	2,462.4	76.7866	2,462.4	78.3884	2,462.4	74.5681	2,462.4	76.1443	2,462.4	72.7731	2,462.4	74.0947	2,462.4	74.4881	2,462.4	75.2372	2,462.4	74.524	2,462.4	76.948	2,462.4	73.3272	2,462.4	75.0947	2,462.4	70.9432	2,462.4	70.9607	2,462.4	71.9871	2,462.4	72.9219	2,462.4	73.3865
2,548.83	89.8494	2,548.83	88.9769	2,548.83	89.7834	2,548.83	88.6713	2,548.83	88.6254	2,548.83	87.2741	2,548.83	87.8683	2,548.83	85.4655	2,548.83	86.5434	2,548.83	84.5591	2,548.83	85.4638	2,548.83	83.4526	2,548.83	83.8124	2,548.83	80.6774	2,548.83	81.7219	2,548.83	79.2292	2,548.83	79.8454	2,548.83	79.2395	2,548.83	78.1686	2,548.83	78.2058	2,548.83	77.7448	2,548.83	76.4528	2,548.83	75.7953	2,548.83	74.3817	2,548.83	72.4773	2,548.83	75.4118	2,548.83	74.0075	2,548.83	75.2812	2,548.83	76.284	2,548.83	72.7485	2,548.83	75.6444	2,548.83	72.5772	2,548.83	70.9783	2,548.83	76.2306	2,548.83	73.1145	2,548.83	75.8725
2,639.65	88.6512	2,639.65	88.4756	2,639.65	88.0278	2,639.65	87.2833	2,639.65	88.2156	2,639.65	86.6782	2,639.65	86.9018	2,639.65	85.0479	2,639.65	86.0225	2,639.65	84.0164	2,639.65	84.682	2,639.65	82.9466	2,639.65	83.1304	2,639.65	80.4574	2,639.65	81.6519	2,639.65	76.7776	2,639.65	79.3646	2,639.65	76.6074	2,639.65	78.3603	2,639.65	77.2787	2,639.65	77.4507	2,639.65	75.3856	2,639.65	76.3289	2,639.65	75.2925	2,639.65	73.2028	2,639.65	74.0021	2,639.65	72.9021	2,639.65	73.3908	2,639.65	74.8939	2,639.65	72.4605	2,639.65	74.7456	2,639.65	71.1654	2,639.65	69.1311	2,639.65	74.7682	2,639.65	70.9074	2,639.65	75.689
2,731.93	88.3142	2,731.93	88.0377	2,731.93	87.7887	2,731.93	86.7578	2,731.93	88.0086	2,731.93	85.9413	2,731.93	87.0005	2,731.93	84.6384	2,731.93	85.8637	2,731.93	83.3406	2,731.93	84.515	2,731.93	82.4768	2,731.93	83.1746	2,731.93	80.6594	2,731.93	81.9041	2,731.93	78.1142	2,731.93	80.3368	2,731.93	76.2975	2,731.93	79.3448	2,731.93	75.8456	2,731.93	78.0665	2,731.93	74.3506	2,731.93	77.6121	2,731.93	74.0704	2,731.93	74.7198	2,731.93	73.627	2,731.93	73.3788	2,731.93	74.3431	2,731.93	75.5047	2,731.93	71.6094	2,731.93	75.2492	2,731.93	68.3055	2,731.93	69.9862	2,731.93	73.6073	2,731.93	68.5311	2,731.93	74.1754
2,828.61	88.619	2,828.61	88.3885	2,828.61	88.5197	2,828.61	87.6822	2,828.61	88.2811	2,828.61	86.9854	2,828.61	87.6476	2,828.61	86.4969	2,828.61	86.4525	2,828.61	84.5675	2,828.61	84.9166	2,828.61	83.1997	2,828.61	84.0684	2,828.61	82.4376	2,828.61	82.2759	2,828.61	79.7772	2,828.61	80.8226	2,828.61	77.5074	2,828.61	79.6965	2,828.61	75.9324	2,828.61	78.2072	2,828.61	74.9438	2,828.61	78.0138	2,828.61	72.6459	2,828.61	75.5106	2,828.61	73.6694	2,828.61	73.5885	2,828.61	75.4132	2,828.61	76.5251	2,828.61	73.5771	2,828.61	75.6604	2,828.61	67.059	2,828.61	71.4245	2,828.61	72.8168	2,828.61	70.9277	2,828.61	74.8408
2,928.22	88.8484	2,928.22	88.276	2,928.22	89.1673	2,928.22	88.2858	2,928.22	88.3691	2,928.22	87.1637	2,928.22	87.8662	2,928.22	86.4969	2,928.22	86.9266	2,928.22	85.0242	2,928.22	86.155	2,928.22	83.5527	2,928.22	85.1668	2,928.22	82.5636	2,928.22	83.3635	2,928.22	81.1286	2,928.22	81.4989	2,928.22	78.9066	2,928.22	79.4142	2,928.22	77.2512	2,928.22	78.0761	2,928.22	76.2557	2,928.22	76.7328	2,928.22	72.3211	2,928.22	74.9211	2,928.22	74.9211	2,928.22	73.8546	2,928.22	76.7071	2,928.22	76.1757	2,928.22	73.6043	2,928.22	76.9119	2,928.22	71.4412	2,928.22	73.9326	2,928.22	73.9082	2,928.22	70.9539	2,928.22	74.7877
3,030.76	88.6937	3,030.76	88.4173	3,030.76	88.7259	3,030.76	87.9115	3,030.76	88.3001	3,030.76	87.2214	3,030.76	87.8214	3,030.76	86.458	3,030.76	87.1138	3,030.76	85.3865	3,030.76	86.2561	3,030.76	83.8084	3,030.76	84.9415	3,030.76	82.585	3,030.76	83.5076	3,030.76	81.4703	3,030.76	81.997	3,030.76	79.3514	3,030.76	79.4845	3,030.76	77.7166	3,030.76	77.3302	3,030.76	76.5181	3,030.76	76.7517	3,030.76	74.1769	3,030.76	75.6543	3,030.76	73.005	3,030.76	73.3632	3,030.76	76.2943	3,030.76	75.6252	3,030.76	74.4491	3,030.76	76.3474	3,030.76	73.4617	3,030.76	73.3214	3,030.76	75.6266	3,030.76	73.7633	3,030.76	75.8387
3,137.7	87.7796	3,137.7	87.4679	3,137.7	88.1123	3,137.7	87.7507	3,137.7	87.2856	3,137.7	87.1111	3,137.7	87.2183	3,137.7	86.7277	3,137.7	86.7357	3,137.7	85.6235	3,137.7	86.1757	3,137.7	84.0849	3,137.7	84.8102	3,137.7	83.1236	3,137.7	83.0812	3,137.7	81.6877	3,137.7	81.4561	3,137.7	79.413	3,137.7	79.7325	3,137.7	78.0696	3,137.7	77.8476	3,137.7	77.0204	3,137.7	77.0226	3,137.7	75.5293	3,137.7	75.9423	3,137.7	73.484	3,137.7	73.1024	3,137.7	76.4635	3,137.7	74.7684	3,137.7	76	3,137.7	75.9539	3,137.7	74.2236	3,137.7	73.114	3,137.7	74.7081	3,137.7	72.5459	3,137.7	74.3371
3,249.02	87.2348	3,249.02	87.0576	3,249.02	87.2993	3,249.02	87.0449	3,249.02	86.8418	3,249.02	86.5964	3,249.02	86.7327	3,249.02	85.8207	3,249.02	86.4335	3,249.02	85.1006	3,249.02	85.9502	3,249.02	83.8052	3,249.02	84.7783	3,249.02	82.1157	3,249.02	83.1932	3,249.02	81.3662	3,249.02	81.4028	3,249.02	78.7831	3,249.02	79.5448	3,249.02	77.083	3,249.02	77.7836	3,249.02	76.4544	3,249.02	76.0725	3,249.02	75.6442	3,249.02	75.6618	3,249.02	72.3256	3,249.02	73.5161	3,249.02	74.3331	3,249.02	73.1525	3,249.02	75.3676	3,249.02	75.8498	3,249.02	72.6516	3,249.02	73.968	3,249.02	72.6831	3,249.02	72.2597	3,249.02	74.4294
3,363.28	87.1681	3,363.28	86.9868	3,363.28	87.1469	3,363.28	87.2863	3,363.28	87.0672	3,363.28	86.9359	3,363.28	86.9641	3,363.28	86.1523	3,363.28	86.7252	3,363.28	85.2636	3,363.28	86.2009	3,363.28	83.7334	3,363.28	84.8149	3,363.28	81.9782	3,363.28	83.2494	3,363.28	80.883	3,363.28	81.1285	3,363.28	77.6807	3,363.28	79.1319	3,363.28	74.4116	3,363.28	76.8015	3,363.28	74.8366	3,363.28	75.9181	3,363.28	73.4705	3,363.28	75.0094	3,363.28	71.6617	3,363.28	73.8601	3,363.28	73.3894	3,363.28	72.2852	3,363.28	73.8126	3,363.28	75.4652	3,363.28	71.0176	3,363.28	73.216	3,363.28	71.8034	3,363.28	71.9118	3,363.28	73.5568
3,481.93	86.7633	3,481.93	87.667	3,481.93	86.3303	3,481.93	87.248	3,481.93	87.2239	3,481.93	87.1442	3,481.93	86.9607	3,481.93	86.6597	3,481.93	87.2373	3,481.93	85.8806	3,481.93	86.6109	3,481.93	83.7545	3,481.93	84.9553	3,481.93	81.7826	3,481.93	83.2475	3,481.93	80.4301	3,481.93	81.4644	3,481.93	79.6247	3,481.93	78.8028	3,481.93	77.1104	3,481.93	75.9862	3,481.93	75.5349	3,481.93	75.0368	3,481.93	73.5735	3,481.93	75.1761	3,481.93	71.9492	3,481.93	72.725	3,481.93	74.107	3,481.93	72.5445	3,481.93	74.5938	3,481.93	74.885	3,481.93	72.2151	3,481.93	73.7329	3,481.93	74.6187	3,481.93	71.3192	3,481.93	74.1992
3,604.98	86.8234	3,604.98	87.5627	3,604.98	86.4487	3,604.98	87.8404	3,604.98	87.3958	3,604.98	88.4515	3,604.98	88.1588	3,604.98	87.7952	3,604.98	87.8041	3,604.98	85.4718	3,604.98	86.8109	3,604.98	84.0214	3,604.98	85.631	3,604.98	81.594	3,604.98	83.3817	3,604.98	78.3118	3,604.98	81.9377	3,604.98	78.1164	3,604.98	79.6188	3,604.98	75.5933	3,604.98	78.3387	3,604.98	74.0638	3,604.98	76.4354	3,604.98	73.3266	3,604.98	75.0468	3,604.98	71.7936	3,604.98	74.4398	3,604.98	74.1206	3,604.98	73.2652	3,604.98	74.6096	3,604.98	75.14	3,604.98	71.6214	3,604.98	75.2835	3,604.98	75.5469	3,604.98	71.965	3,604.98	75.4405
3,732.42	87.1956	3,732.42	87.8797	3,732.42	87.5049	3,732.42	88.4126	3,732.42	88.2641	3,732.42	88.6108	3,732.42	88.8465	3,732.42	88.4353	3,732.42	88.2288	3,732.42	87.059	3,732.42	86.8731	3,732.42	85.1498	3,732.42	84.978	3,732.42	82.7711	3,732.42	82.5765	3,732.42	80.1673	3,732.42	80.9346	3,732.42	78.5632	3,732.42	79.3096	3,732.42	76.9372	3,732.42	77.0772	3,732.42	72.6322	3,732.42	74.2289	3,732.42	73.6647	3,732.42	74.8765	3,732.42	73.8082	3,732.42	74.8329	3,732.42	72.9525	3,732.42	72.4516	3,732.42	73.8007	3,732.42	74.953	3,732.42	71.3709	3,732.42	75.3544	3,732.42	75.2907	3,732.42	73.802	3,732.42	76.2282
3,864.26	86.4022	3,864.26	86.7982	3,864.26	86.5558	3,864.26	88.1877	3,864.26	86.8402	3,864.26	88.4979	3,864.26	87.9935	3,864.26	87.9787	3,864.26	87.4072	3,864.26	86.1597	3,864.26	86.3263	3,864.26	84.8398	3,864.26	84.0336	3,864.26	82.9325	3,864.26	82.3382	3,864.26	80.7661	3,864.26	79.4083	3,864.26	77.88	3,864.26	77.5303	3,864.26	76.1658	3,864.26	75.6687	3,864.26	73.245	3,864.26	74.2743	3,864.26	74.2567	3,864.26	72.2583	3,864.26	73.2068	3,864.26	72.885	3,864.26	73.6589	3,864.26	71.2999	3,864.26	74.0923	3,864.26	71.92	3,864.26	73.1982	3,864.26	72.9416	3,864.26	74.2107	3,864.26	71.4795	3,864.26	74.7533
4,000.49	86.3209	4,000.49	87.056	4,000.49	86.9939	4,000.49	88.2211	4,000.49	87.7456	4,000.49	88.1318	4,000.49	87.9066	4,000.49	86.9547	4,000.49	88.1175	4,000.49	85.1465	4,000.49	86.8041	4,000.49	83.5644	4,000.49	84.7501	4,000.49	80.1372	4,000.49	83.4075	4,000.49	79.1689	4,000.49	79.9798	4,000.49	75.6242	4,000.49	78.4603	4,000.49	73.8582	4,000.49	77.6993	4,000.49	74.696	4,000.49	75.7221	4,000.49	73.2807	4,000.49	72.0834	4,000.49	72.8435	4,000.49	73.4508	4,000.49	72.5833	4,000.49	70.9915	4,000.49	75.0797	4,000.49	73.5831	4,000.49	73.3008	4,000.49	72.6893	4,000.49	73.5519	4,000.49	74.5271	4,000.49	74.8301
4,141.11	86.54	4,141.11	87.1738	4,141.11	86.9991	4,141.11	88.9127	4,141.11	86.9648	4,141.11	88.8723	4,141.11	87.7743	4,141.11	87.8965	4,141.11	87.7286	4,141.11	86.8144	4,141.11	86.5028	4,141.11	84.0385	4,141.11	84.1763	4,141.11	81.3758	4,141.11	82.6119	4,141.11	78.4222	4,141.11	80.0358	4,141.11	76.5482	4,141.11	76.8985	4,141.11	77.151	4,141.11	76.8542	4,141.11	74.9392	4,141.11	73.937	4,141.11	71.6816	4,141.11	71.8267	4,141.11	73.4877	4,141.11	74.8862	4,141.11	73.2072	4,141.11	73.1775	4,141.11	75.6292	4,141.11	72.4582	4,141.11	75.0031	4,141.11	73.9875	4,141.11	77.7516	4,141.11	73.141	4,141.11	77.993
4,287.6	86.0442	4,287.6	88.2222	4,287.6	85.7204	4,287.6	88.1987	4,287.6	87.3744	4,287.6	86.6262	4,287.6	87.4706	4,287.6	86.2245	4,287.6	87.7692	4,287.6	86.1056	4,287.6	86.7227	4,287.6	82.6095	4,287.6	85.6209	4,287.6	81.3621	4,287.6	83.2519	4,287.6	77.3153	4,287.6	81.6822	4,287.6	77.9034	4,287.6	78.1209	4,287.6	78.1096	4,287.6	75.1285	4,287.6	74.4346	4,287.6	74.2028	4,287.6	73.7456	4,287.6	74.5604	4,287.6	74.3545	4,287.6	72.6881	4,287.6	73.79	4,287.6	73.5219	4,287.6	75.5662	4,287.6	74.1333	4,287.6	73.0435	4,287.6	75.5895	4,287.6	76.7269	4,287.6	73.6995	4,287.6	78.6491
4,438.48	86.2242	4,438.48	86.8284	4,438.48	86.7798	4,438.48	87.1859	4,438.48	87.7074	4,438.48	87.848	4,438.48	88.1221	4,438.48	86.2623	4,438.48	88.2081	4,438.48	83.9748	4,438.48	86.7701	4,438.48	83.4978	4,438.48	85.4458	4,438.48	82.7483	4,438.48	83.4021	4,438.48	80.3431	4,438.48	80.7262	4,438.48	76.5786	4,438.48	79.3808	4,438.48	77.2405	4,438.48	77.4165	4,438.48	72.3854	4,438.48	77.4729	4,438.48	72.4683	4,438.48	74.8925	4,438.48	73.4444	4,438.48	73.6419	4,438.48	72.5562	4,438.48	73.5958	4,438.48	73.983	4,438.48	74.4323	4,438.48	71.1635	4,438.48	74.6584	4,438.48	74.5126	4,438.48	73.793	4,438.48	76.8841
4,595.21	86.1561	4,595.21	85.4656	4,595.21	86.3672	4,595.21	87.5575	4,595.21	86.2641	4,595.21	89.2789	4,595.21	88.496	4,595.21	87.8515	4,595.21	87.1189	4,595.21	85.8789	4,595.21	85.7064	4,595.21	85.213	4,595.21	84.5971	4,595.21	83.9356	4,595.21	81.8478	4,595.21	81.2066	4,595.21	82.2877	4,595.21	78.901	4,595.21	80.8977	4,595.21	76.6113	4,595.21	77.5307	4,595.21	75.2382	4,595.21	76.822	4,595.21	73.2691	4,595.21	73.7998	4,595.21	74.2989	4,595.21	74.624	4,595.21	73.4725	4,595.21	73.0422	4,595.21	75.5347	4,595.21	71.5421	4,595.21	73.6466	4,595.21	76.0215	4,595.21	75.8083	4,595.21	69.4418	4,595.21	75.0045
4,756.35	84.8563	4,756.35	86.8917	4,756.35	84.7084	4,756.35	88.7514	4,756.35	86.4258	4,756.35	88.4102	4,756.35	87.9536	4,756.35	88.2451	4,756.35	87.3959	4,756.35	87.71	4,756.35	87.288	4,756.35	86.0304	4,756.35	85.2004	4,756.35	83.2837	4,756.35	83.2375	4,756.35	82.2197	4,756.35	81.2377	4,756.35	79.8062	4,756.35	81.7816	4,756.35	77.3565	4,756.35	80.5337	4,756.35	77.6459	4,756.35	78.2524	4,756.35	74.6875	4,756.35	73.5765	4,756.35	76.8455	4,756.35	72.6177	4,756.35	74.396	4,756.35	73.4383	4,756.35	75.6722	4,756.35	72.2735	4,756.35	72.7644	4,756.35	76.0278	4,756.35	75.5594	4,756.35	73.7605	4,756.35	77.4423
4,924.8	84.8711	4,924.8	85.6111	4,924.8	84.592	4,924.8	86.9582	4,924.8	87.4787	4,924.8	85.1069	4,924.8	86.3245	4,924.8	86.0045	4,924.8	86.2838	4,924.8	86.492	4,924.8	86.5062	4,924.8	85.0149	4,924.8	83.7911	4,924.8	83.9986	4,924.8	84.3253	4,924.8	82.9342	4,924.8	81.9329	4,924.8	80.0003	4,924.8	80.3807	4,924.8	77.8271	4,924.8	78.6393	4,924.8	78.8472	4,924.8	76.124	4,924.8	72.3035	4,924.8	75.6525	4,924.8	73.7554	4,924.8	72.1762	4,924.8	70.3939	4,924.8	76.1857	4,924.8	78.0456	4,924.8	74.6127	4,924.8	74.7285	4,924.8	75.7863	4,924.8	72.8795	4,924.8	73.9772	4,924.8	76.6368
5,097.66	88.2086	5,097.66	86.5584	5,097.66	88.3306	5,097.66	86.1442	5,097.66	87.2955	5,097.66	87.3427	5,097.66	87.7141	5,097.66	85.2272	5,097.66	86.3803	5,097.66	83.3188	5,097.66	83.6653	5,097.66	82.2868	5,097.66	86.1302	5,097.66	81.6537	5,097.66	85.0643	5,097.66	81.0692	5,097.66	82.9337	5,097.66	79.1774	5,097.66	78.6501	5,097.66	74.4844	5,097.66	77.1069	5,097.66	77.0931	5,097.66	75.1056	5,097.66	73.2017	5,097.66	73.6354	5,097.66	71.0415	5,097.66	70.2936	5,097.66	73.7869	5,097.66	75.7396	5,097.66	78.1516	5,097.66	74.4847	5,097.66	75.2024	5,097.66	75.0826	5,097.66	76.2887	5,097.66	68.7315	5,097.66	75.8672
5,277.83	89.1746	5,277.83	88.3798	5,277.83	89.2095	5,277.83	87.7815	5,277.83	85.7442	5,277.83	88.2604	5,277.83	86.2274	5,277.83	88.3094	5,277.83	85.5585	5,277.83	86.9015	5,277.83	85.986	5,277.83	86.7443	5,277.83	85.1068	5,277.83	82.5375	5,277.83	83.1735	5,277.83	81.2441	5,277.83	81.8221	5,277.83	79.764	5,277.83	80.7443	5,277.83	76.2435	5,277.83	76.715	5,277.83	76.8599	5,277.83	74.9381	5,277.83	72.7528	5,277.83	73.0943	5,277.83	72.8089	5,277.83	72.5334	5,277.83	75.0038	5,277.83	72.543	5,277.83	73.0934	5,277.83	70.3119	5,277.83	74.1054	5,277.83	75.8939	5,277.83	75.1339	5,277.83	71.5977	5,277.83	77.3352
5,463.87	88.4411	5,463.87	87.4719	5,463.87	88.387	5,463.87	86.8063	5,463.87	87.1288	5,463.87	84.6391	5,463.87	83.8428	5,463.87	87.1883	5,463.87	85.0411	5,463.87	88.4626	5,463.87	87.0171	5,463.87	86.6358	5,463.87	84.6952	5,463.87	84.8986	5,463.87	83.771	5,463.87	82.6997	5,463.87	81.6367	5,463.87	79.6252	5,463.87	79.3584	5,463.87	79.4585	5,463.87	79.5461	5,463.87	75.1598	5,463.87	77.36	5,463.87	76.0118	5,463.87	75.9176	5,463.87	74.2146	5,463.87	69.4645	5,463.87	74.0702	5,463.87	74.3236	5,463.87	75.4964	5,463.87	72.4096	5,463.87	74.9125	5,463.87	77.2372	5,463.87	72.3104	5,463.87	69.3964	5,463.87	74.1968
5,657.23	88.8024	5,657.23	87.1029	5,657.23	87.8223	5,657.23	85.5297	5,657.23	87.2424	5,657.23	86.6175	5,657.23	86.0939	5,657.23	86.3618	5,657.23	85.5973	5,657.23	87.9621	5,657.23	85.9251	5,657.23	85.4502	5,657.23	86.9817	5,657.23	84.9977	5,657.23	85.5095	5,657.23	80.65	5,657.23	83.9658	5,657.23	78.214	5,657.23	80.4059	5,657.23	78.7278	5,657.23	77.3782	5,657.23	74.1297	5,657.23	73.779	5,657.23	74.9824	5,657.23	77.5116	5,657.23	73.63	5,657.23	71.2404	5,657.23	72.9158	5,657.23	71.2574	5,657.23	73.8785	5,657.23	73.4239	5,657.23	73.1566	5,657.23	74.817	5,657.23	73.275	5,657.23	73.5696	5,657.23	76.0405
5,856.45	88.219	5,856.45	86.6256	5,856.45	88.0041	5,856.45	84.8137	5,856.45	85.997	5,856.45	87.3952	5,856.45	86.5356	5,856.45	87.5834	5,856.45	87.7861	5,856.45	86.9376	5,856.45	87.5937	5,856.45	85.9296	5,856.45	86.6668	5,856.45	83.1671	5,856.45	84.1519	5,856.45	78.623	5,856.45	82.0509	5,856.45	78.2812	5,856.45	79.12	5,856.45	76.9799	5,856.45	76.3532	5,856.45	76.828	5,856.45	74.7456	5,856.45	73.8581	5,856.45	73.129	5,856.45	73.6603	5,856.45	73.4607	5,856.45	74.1719	5,856.45	70.8266	5,856.45	72.5076	5,856.45	71.0162	5,856.45	76.233	5,856.45	74.4839	5,856.45	73.5321	5,856.45	73.6329	5,856.45	75.5438
6,062.99	88.3164	6,062.99	87.046	6,062.99	88.3389	6,062.99	86.8632	6,062.99	85.8656	6,062.99	86.9916	6,062.99	84.9847	6,062.99	88.4927	6,062.99	87.2135	6,062.99	87.0577	6,062.99	87.6663	6,062.99	86.5377	6,062.99	85.4557	6,062.99	82.634	6,062.99	83.7753	6,062.99	80.6425	6,062.99	79.1007	6,062.99	80.0994	6,062.99	77.6673	6,062.99	75.5416	6,062.99	73.2848	6,062.99	72.0047	6,062.99	74.8324	6,062.99	71.2365	6,062.99	70.365	6,062.99	67.9855	6,062.99	72.9768	6,062.99	73.6413	6,062.99	67.4347	6,062.99	72.5404	6,062.99	68.678	6,062.99	76.0434	6,062.99	73.7155	6,062.99	73.4816	6,062.99	73.5436	6,062.99	74.6396
6,276.86	87.8809	6,276.86	86.7124	6,276.86	87.0112	6,276.86	86.0972	6,276.86	85.7938	6,276.86	86.8766	6,276.86	85.3011	6,276.86	86.7996	6,276.86	85.3282	6,276.86	86.3899	6,276.86	85.8528	6,276.86	84.2269	6,276.86	84.3648	6,276.86	82.7053	6,276.86	81.5624	6,276.86	81.3554	6,276.86	79.4813	6,276.86	79.9711	6,276.86	77.2745	6,276.86	76.5123	6,276.86	73.4343	6,276.86	69.5962	6,276.86	69.5964	6,276.86	71.7188	6,276.86	71.934	6,276.86	68.9519	6,276.86	67.2547	6,276.86	71.8963	6,276.86	72.1472	6,276.86	72.1045	6,276.86	71.8325	6,276.86	74.9111	6,276.86	71.8798	6,276.86	69.6762	6,276.86	74.3062	6,276.86	72.0448
6,498.05	88.8569	6,498.05	87.5516	6,498.05	87.3318	6,498.05	87.4448	6,498.05	86.5723	6,498.05	87.7892	6,498.05	87.5176	6,498.05	87.4584	6,498.05	86.3882	6,498.05	87.3055	6,498.05	85.6671	6,498.05	83.8913	6,498.05	83.9401	6,498.05	81.7536	6,498.05	80.1521	6,498.05	80.867	6,498.05	79.1411	6,498.05	77.2315	6,498.05	76.8554	6,498.05	75.4505	6,498.05	76.2564	6,498.05	74.6728	6,498.05	72.0419	6,498.05	67.9786	6,498.05	71.8629	6,498.05	70.7724	6,498.05	70.5122	6,498.05	69.7854	6,498.05	67.9479	6,498.05	69.0591	6,498.05	71.8581	6,498.05	75.8504	6,498.05	71.2347	6,498.05	70.7881	6,498.05	74.8032	6,498.05	67.7315
6,726.56	87.7801	6,726.56	87.4293	6,726.56	87.3402	6,726.56	88.0574	6,726.56	87.4882	6,726.56	87.7672	6,726.56	87.4718	6,726.56	87.0996	6,726.56	86.9406	6,726.56	85.8583	6,726.56	84.9166	6,726.56	84.3259	6,726.56	82.2432	6,726.56	81.089	6,726.56	80.7275	6,726.56	80.485	6,726.56	78.6925	6,726.56	77.4938	6,726.56	76.0966	6,726.56	71.7633	6,726.56	75.2762	6,726.56	74.7597	6,726.56	73.6463	6,726.56	67.177	6,726.56	68.4231	6,726.56	67.6572	6,726.56	70.4336	6,726.56	70.7501	6,726.56	68.9513	6,726.56	70.3492	6,726.56	67.526	6,726.56	75.0199	6,726.56	70.9994	6,726.56	71.8994	6,726.56	72.7806	6,726.56	70.375
6,963.87	85.8582	6,963.87	86.8898	6,963.87	86.3799	6,963.87	87.6852	6,963.87	87.4178	6,963.87	87.1871	6,963.87	87.2899	6,963.87	86.1788	6,963.87	86.5691	6,963.87	83.4649	6,963.87	84.344	6,963.87	83.01	6,963.87	82.2449	6,963.87	81.5113	6,963.87	82.3012	6,963.87	77.9358	6,963.87	80.8179	6,963.87	77.1424	6,963.87	78.7612	6,963.87	75.3135	6,963.87	76.9445	6,963.87	73.5263	6,963.87	75.3768	6,963.87	68.5063	6,963.87	71.9098	6,963.87	67.5283	6,963.87	67.6757	6,963.87	68.6655	6,963.87	68.3661	6,963.87	73.5199	6,963.87	71.5246	6,963.87	73.531	6,963.87	69.6454	6,963.87	70.6813	6,963.87	72.683	6,963.87	73.3006
7,209.96	85.618	7,209.96	87.3704	7,209.96	86.0815	7,209.96	88.1677	7,209.96	88.0573	7,209.96	87.0738	7,209.96	87.5187	7,209.96	85.7843	7,209.96	85.271	7,209.96	83.3308	7,209.96	84.8893	7,209.96	82.4341	7,209.96	85.128	7,209.96	82.778	7,209.96	83.5906	7,209.96	79.5737	7,209.96	83.1395	7,209.96	76.4719	7,209.96	81.1502	7,209.96	76.4462	7,209.96	78.5835	7,209.96	73.7627	7,209.96	76.6438	7,209.96	70.2574	7,209.96	72.3051	7,209.96	73.8381	7,209.96	73.3194	7,209.96	70.4485	7,209.96	69.1432	7,209.96	70.7112	7,209.96	73.1266	7,209.96	72.9015	7,209.96	70.9341	7,209.96	64.5584	7,209.96	74.5744	7,209.96	74.7898
7,464.84	84.434	7,464.84	86.9702	7,464.84	85.0295	7,464.84	87.8516	7,464.84	86.9941	7,464.84	85.7978	7,464.84	87.0081	7,464.84	84.2416	7,464.84	83.4596	7,464.84	84.5226	7,464.84	83.2211	7,464.84	84.4421	7,464.84	84.2481	7,464.84	82.5676	7,464.84	83.7523	7,464.84	80.9537	7,464.84	82.3953	7,464.84	77.5618	7,464.84	78.9081	7,464.84	73.7505	7,464.84	78.2131	7,464.84	74.5898	7,464.84	74.0352	7,464.84	72.8838	7,464.84	73.4826	7,464.84	71.1642	7,464.84	69.5664	7,464.84	70.2177	7,464.84	70.0618	7,464.84	70.1579	7,464.84	67.8501	7,464.84	71.0511	7,464.84	71.7615	7,464.84	67.5132	7,464.84	74.1646	7,464.84	72.2785
7,727.05	82.1929	7,727.05	85.2931	7,727.05	84.4613	7,727.05	85.3653	7,727.05	85.8368	7,727.05	83.6275	7,727.05	83.8503	7,727.05	82.2461	7,727.05	83.8657	7,727.05	83.7839	7,727.05	85.0143	7,727.05	85.2227	7,727.05	85.954	7,727.05	82.9114	7,727.05	85.1238	7,727.05	80.9723	7,727.05	82.6637	7,727.05	77.6263	7,727.05	80.0235	7,727.05	75.0979	7,727.05	76.9417	7,727.05	72.8849	7,727.05	74.372	7,727.05	72.4097	7,727.05	72.3319	7,727.05	69.9937	7,727.05	72.5998	7,727.05	68.1119	7,727.05	70.3767	7,727.05	69.7568	7,727.05	71.8715	7,727.05	68.5151	7,727.05	70.316	7,727.05	63.9287	7,727.05	71.8698	7,727.05	68.2442
7,999.51	85.654	7,999.51	84.8958	7,999.51	85.436	7,999.51	84.1398	7,999.51	84.6434	7,999.51	82.0182	7,999.51	83.9833	7,999.51	84.3449	7,999.51	84.6465	7,999.51	84.6295	7,999.51	87.3909	7,999.51	83.4319	7,999.51	85.9142	7,999.51	81.4299	7,999.51	84.2758	7,999.51	77.9921	7,999.51	79.8609	7,999.51	74.2023	7,999.51	77.5812	7,999.51	73.4402	7,999.51	73.3243	7,999.51	72.3684	7,999.51	71.5289	7,999.51	70.0966	7,999.51	72.2088	7,999.51	67.5945	7,999.51	70.5187	7,999.51	67.2745	7,999.51	69.0165	7,999.51	70.257	7,999.51	66.0084	7,999.51	71.7027	7,999.51	70.5385	7,999.51	54.311	7,999.51	71.9605	7,999.51	66.5278
8,282.23	85.8539	8,282.23	83.9316	8,282.23	83.7474	8,282.23	82.4047	8,282.23	83.5339	8,282.23	83.9361	8,282.23	84.3202	8,282.23	85.2337	8,282.23	87.662	8,282.23	85.9196	8,282.23	87.184	8,282.23	82.2758	8,282.23	85.2787	8,282.23	76.0471	8,282.23	81.3789	8,282.23	71.993	8,282.23	78.5446	8,282.23	71.1313	8,282.23	76.3877	8,282.23	69.7428	8,282.23	73.7191	8,282.23	47.149	8,282.23	69.3575	8,282.23	64.9498	8,282.23	70.8418	8,282.23	58.4323	8,282.23	66.8492	8,282.23	57.7573	8,282.23	63.7163	8,282.23	69.0076	8,282.23	68.261	8,282.23	72.5102	8,282.23	71.3566	8,282.23	59.7297	8,282.23	71.8376	8,282.23	69.7566
8,573.73	85.3056	8,573.73	82.381	8,573.73	85.5251	8,573.73	81.5481	8,573.73	80.679	8,573.73	86.0254	8,573.73	83.2967	8,573.73	86.5149	8,573.73	85.6925	8,573.73	83.7546	8,573.73	85.9119	8,573.73	78.2152	8,573.73	82.9362	8,573.73	78.0659	8,573.73	78.2241	8,573.73	73.4443	8,573.73	76.0352	8,573.73	73.5687	8,573.73	74.6299	8,573.73	70.2361	8,573.73	73.1931	8,573.73	66.3341	8,573.73	68.0839	8,573.73	61.1265	8,573.73	67.9956	8,573.73	67.0228	8,573.73	61.5184	8,573.73	65.9776	8,573.73	64.0319	8,573.73	69.1913	8,573.73	61.7642	8,573.73	68.75	8,573.73	68.2628	8,573.73	65.092	8,573.73	70.8965	8,573.73	71.7845
8,876.95	85.6744	8,876.95	81.8105	8,876.95	84.9571	8,876.95	82.2675	8,876.95	83.181	8,876.95	85.9003	8,876.95	84.9345	8,876.95	85.5294	8,876.95	86.7382	8,876.95	83.5651	8,876.95	85.101	8,876.95	82.6695	8,876.95	82.4047	8,876.95	80.1102	8,876.95	80.7332	8,876.95	78.4678	8,876.95	80.6185	8,876.95	73.8955	8,876.95	76.1586	8,876.95	73.7249	8,876.95	73.9893	8,876.95	69.9754	8,876.95	70.8598	8,876.95	68.4423	8,876.95	62.4298	8,876.95	62.6343	8,876.95	67.0844	8,876.95	60.4038	8,876.95	63.705	8,876.95	66.6609	8,876.95	63.7551	8,876.95	72.687	8,876.95	68.1362	8,876.95	63.0136	8,876.95	71.2936	8,876.95	67.4839
9,188.96	85.2264	9,188.96	84.0139	9,188.96	85.7346	9,188.96	84.4068	9,188.96	85.1986	9,188.96	85.0349	9,188.96	84.1461	9,188.96	85.2708	9,188.96	85.4427	9,188.96	84.843	9,188.96	84.0323	9,188.96	83.9025	9,188.96	83.86	9,188.96	81.9538	9,188.96	83.0661	9,188.96	81.1269	9,188.96	80.3355	9,188.96	77.3551	9,188.96	77.3992	9,188.96	71.9681	9,188.96	73.9401	9,188.96	71.5698	9,188.96	71.9213	9,188.96	65.3981	9,188.96	68.003	9,188.96	63.4263	9,188.96	69.196	9,188.96	65.5911	9,188.96	66.8136	9,188.96	68.13	9,188.96	61.8336	9,188.96	68.4512	9,188.96	65.5805	9,188.96	61.416	9,188.96	68.9842	9,188.96	60.1336
9,514.16	85.6492	9,514.16	87.3186	9,514.16	85.7698	9,514.16	86.0362	9,514.16	87.5778	9,514.16	83.7207	9,514.16	85.3206	9,514.16	84.5815	9,514.16	83.1881	9,514.16	84.778	9,514.16	85.1612	9,514.16	84.7056	9,514.16	84.7274	9,514.16	81.653	9,514.16	83.6514	9,514.16	79.6692	9,514.16	81.1819	9,514.16	74.7454	9,514.16	76.8552	9,514.16	71.6424	9,514.16	72.0925	9,514.16	71.2911	9,514.16	69.7133	9,514.16	65.3598	9,514.16	66.1331	9,514.16	65.4216	9,514.16	66.9271	9,514.16	64.5639	9,514.16	66.7293	9,514.16	67.9661	9,514.16	60.7407	9,514.16	66.2282	9,514.16	66.1963	9,514.16	51.9883	9,514.16	67.9667	9,514.16	58.6918
9,849.61	86.6839	9,849.61	88.3756	9,849.61	87.2783	9,849.61	86.5004	9,849.61	87.789	9,849.61	83.4578	9,849.61	84.7507	9,849.61	84.7235	9,849.61	82.92	9,849.61	85.0019	9,849.61	84.3737	9,849.61	83.0015	9,849.61	84.6208	9,849.61	79.2391	9,849.61	82.4343	9,849.61	77.36	9,849.61	78.7344	9,849.61	71.9513	9,849.61	74.9186	9,849.61	67.5464	9,849.61	69.2877	9,849.61	66.332	9,849.61	65.4705	9,849.61	54.5654	9,849.61	66.6378	9,849.61	61.7851	9,849.61	60.2424	9,849.61	61.4827	9,849.61	63.3995	9,849.61	63.5149	9,849.61	57.9159	9,849.61	65.8477	9,849.61	63.5108	9,849.61	53.3024	9,849.61	66.0744	9,849.61	56.3044
10,196.8	89.3546	10,196.8	89.5814	10,196.8	89.6982	10,196.8	87.5326	10,196.8	89.3468	10,196.8	85.0829	10,196.8	85.5608	10,196.8	85.318	10,196.8	83.8635	10,196.8	85.1296	10,196.8	85.1343	10,196.8	82.3559	10,196.8	83.3772	10,196.8	78.9614	10,196.8	80.3372	10,196.8	73.3228	10,196.8	74.5682	10,196.8	68.9412	10,196.8	71.0203	10,196.8	66.615	10,196.8	67.4286	10,196.8	65.7098	10,196.8	63.1303	10,196.8	61.0537	10,196.8	59.8051	10,196.8	60.114	10,196.8	48.8734	10,196.8	60.7577	10,196.8	58.9231	10,196.8	62.5701	10,196.8	43.1108	10,196.8	64.9921	10,196.8	62.0936	10,196.8	52.7677	10,196.8	63.7862	10,196.8	54.6925
10,555.7	90.5635	10,555.7	89.9319	10,555.7	90.5647	10,555.7	88.1608	10,555.7	89.1708	10,555.7	85.7121	10,555.7	86.5899	10,555.7	84.8015	10,555.7	85.2033	10,555.7	84.0329	10,555.7	84.392	10,555.7	80.6105	10,555.7	81.5654	10,555.7	76.4735	10,555.7	77.7099	10,555.7	71.1324	10,555.7	73.7561	10,555.7	69.3901	10,555.7	70.4424	10,555.7	65.5955	10,555.7	66.7028	10,555.7	60.1341	10,555.7	63.8317	10,555.7	59.5189	10,555.7	61.9704	10,555.7	54.0443	10,555.7	52.276	10,555.7	58.8373	10,555.7	52.7587	10,555.7	62.9734	10,555.7	49.6962	10,555.7	57.5023	10,555.7	56.8866	10,555.7	33.1951	10,555.7	62.4702	10,555.7	52.0127
10,927.7	91.5071	10,927.7	90.5484	10,927.7	91.3885	10,927.7	88.9204	10,927.7	90.0894	10,927.7	86.4605	10,927.7	87.6548	10,927.7	84.7	10,927.7	85.3669	10,927.7	83.1977	10,927.7	84.0514	10,927.7	79.5519	10,927.7	81.1312	10,927.7	76.0587	10,927.7	76.4613	10,927.7	71.4733	10,927.7	73.2057	10,927.7	68.033	10,927.7	68.0152	10,927.7	64.6592	10,927.7	65.5453	10,927.7	54.6645	10,927.7	60.354	10,927.7	57.4738	10,927.7	59.6575	10,927.7	45.9307	10,927.7	59.2572	10,927.7	56.8959	10,927.7	55.5662	10,927.7	62.4596	10,927.7	58.5749	10,927.7	58.2822	10,927.7	55.3631	10,927.7	49.0173	10,927.7	57.7524	10,927.7	52.488
11,313	92.5402	11,313	91.2618	11,313	92.2128	11,313	89.3845	11,313	90.6286	11,313	86.423	11,313	88.2705	11,313	83.7978	11,313	85.2033	11,313	81.8527	11,313	83.1019	11,313	79.7119	11,313	80.209	11,313	75.5143	11,313	76.5046	11,313	72.0375	11,313	73.5813	11,313	66.0939	11,313	67.408	11,313	65.5431	11,313	63.4091	11,313	57.1064	11,313	61.9164	11,313	51.81	11,313	57.1353	11,313	57.7714	11,313	56.8863	11,313	46.0225	11,313	56.1351	11,313	61.6516	11,313	55.1864	11,313	57.6924	11,313	56.8069	11,313	55.3353	11,313	55.172	11,313	53.1617
11,712.9	93.0884	11,712.9	91.9256	11,712.9	92.6823	11,712.9	89.4751	11,712.9	91.0751	11,712.9	86.0485	11,712.9	88.1892	11,712.9	82.356	11,712.9	84.5287	11,712.9	80.6322	11,712.9	82.0267	11,712.9	78.0188	11,712.9	79.2885	11,712.9	74.8773	11,712.9	75.6113	11,712.9	70.764	11,712.9	70.6092	11,712.9	62.7722	11,712.9	65.4781	11,712.9	62.9996	11,712.9	63.8929	11,712.9	52.0166	11,712.9	58.8513	11,712.9	48.5691	11,712.9	58.9895	11,712.9	58.4166	11,712.9	58.8514	11,712.9	55.6391	11,712.9	57.2433	11,712.9	58.7828	11,712.9	56.9092	11,712.9	59.5275	11,712.9	59.1167	11,712.9	56.8585	11,712.9	49.6931	11,712.9	52.7508
12,126	93.6084	12,126	92.0637	12,126	93.2784	12,126	89.9226	12,126	91.3979	12,126	85.0904	12,126	88.5767	12,126	81.1897	12,126	83.4004	12,126	79.5189	12,126	80.5894	12,126	75.7553	12,126	79.0388	12,126	71.452	12,126	73.4654	12,126	69.6414	12,126	69.6704	12,126	60.6178	12,126	67.778	12,126	54.8581	12,126	65.4797	12,126	61.6357	12,126	61.022	12,126	59.1438	12,126	58.7482	12,126	53.0454	12,126	55.0381	12,126	52.4818	12,126	60.2479	12,126	53.3746	12,126	58.1227	12,126	57.1921	12,126	59.2306	12,126	57.3722	12,126	59.8282	12,126	50.3984
12,553.7	94.0732	12,553.7	92.3935	12,553.7	93.6648	12,553.7	89.8731	12,553.7	91.7614	12,553.7	83.6428	12,553.7	88.4196	12,553.7	79.889	12,553.7	81.9701	12,553.7	78.2917	12,553.7	80.1716	12,553.7	73.4722	12,553.7	76.8582	12,553.7	64.882	12,553.7	72.0464	12,553.7	58.0475	12,553.7	71.7026	12,553.7	66.1504	12,553.7	70.6464	12,553.7	64.2759	12,553.7	65.7357	12,553.7	57.671	12,553.7	63.5326	12,553.7	60.224	12,553.7	59.303	12,553.7	52.0334	12,553.7	62.255	12,553.7	55.5192	12,553.7	60.8363	12,553.7	54.2624	12,553.7	60.1567	12,553.7	55.9407	12,553.7	61.2742	12,553.7	59.5337	12,553.7	58.6328	12,553.7	51.5895
12,996.1	93.9802	12,996.1	91.9428	12,996.1	93.3598	12,996.1	89.427	12,996.1	91.1117	12,996.1	84.7296	12,996.1	88.1678	12,996.1	81.3572	12,996.1	82.4997	12,996.1	79.3595	12,996.1	80.3484	12,996.1	75.4815	12,996.1	77.3444	12,996.1	76.2078	12,996.1	78.4305	12,996.1	73.4705	12,996.1	76.4519	12,996.1	69.2707	12,996.1	73.9894	12,996.1	68.0549	12,996.1	69.2526	12,996.1	63.0711	12,996.1	68.0623	12,996.1	55.6019	12,996.1	64.2677	12,996.1	55.7403	12,996.1	65.4628	12,996.1	61.3267	12,996.1	60.8122	12,996.1	60.0636	12,996.1	64.3397	12,996.1	52.0582	12,996.1	63.1572	12,996.1	58.3281	12,996.1	60.3009	12,996.1	50.8228
13,454.6	93.3113	13,454.6	91.9681	13,454.6	92.8177	13,454.6	89.4134	13,454.6	91.0193	13,454.6	85.4773	13,454.6	87.2837	13,454.6	81.9699	13,454.6	83.2611	13,454.6	80.2571	13,454.6	80.8172	13,454.6	80.9318	13,454.6	81.353	13,454.6	78.5936	13,454.6	81.3392	13,454.6	76.1866	13,454.6	77.9611	13,454.6	71.3412	13,454.6	75.8509	13,454.6	67.851	13,454.6	71.7805	13,454.6	64.8594	13,454.6	69.2524	13,454.6	60.2094	13,454.6	65.2681	13,454.6	60.6906	13,454.6	65.9117	13,454.6	60.7092	13,454.6	62.9425	13,454.6	62.8813	13,454.6	65.7666	13,454.6	54.3941	13,454.6	63.6208	13,454.6	45.6277	13,454.6	61.5371	13,454.6	52.9404
13,929.2	92.9084	13,929.2	91.564	13,929.2	92.4165	13,929.2	88.8695	13,929.2	90.4307	13,929.2	86.0084	13,929.2	87.3572	13,929.2	82.7203	13,929.2	83.6292	13,929.2	81.3949	13,929.2	80.478	13,929.2	82.3608	13,929.2	82.731	13,929.2	78.4457	13,929.2	82.4413	13,929.2	73.3948	13,929.2	78.4642	13,929.2	70.1374	13,929.2	75.6041	13,929.2	68.5648	13,929.2	72.654	13,929.2	63.8885	13,929.2	68.9432	13,929.2	63.4163	13,929.2	65.6702	13,929.2	60.5472	13,929.2	66.0709	13,929.2	59.4938	13,929.2	64.0681	13,929.2	62.5853	13,929.2	66.221	13,929.2	56.1597	13,929.2	63.2829	13,929.2	34.3975	13,929.2	60.7927	13,929.2	59.6746
14,419.9	91.8729	14,419.9	91.0616	14,419.9	91.6913	14,419.9	88.6765	14,419.9	89.6602	14,419.9	86.0837	14,419.9	86.8903	14,419.9	83.4492	14,419.9	83.8045	14,419.9	82.1246	14,419.9	81.8178	14,419.9	81.268	14,419.9	82.9587	14,419.9	77.7026	14,419.9	82.5044	14,419.9	74.8182	14,419.9	78.235	14,419.9	70.5016	14,419.9	74.7942	14,419.9	67.9816	14,419.9	73.3801	14,419.9	65.1857	14,419.9	67.8035	14,419.9	65.3223	14,419.9	66.7461	14,419.9	62.776	14,419.9	65.2935	14,419.9	57.5287	14,419.9	65.381	14,419.9	57.7964	14,419.9	65.5769	14,419.9	49.2688	14,419.9	64.3976	14,419.9	54.3453	14,419.9	61.187	14,419.9	62.4958
14,928.2	90.4798	14,928.2	90.2988	14,928.2	90.5628	14,928.2	88.7201	14,928.2	88.8874	14,928.2	86.1623	14,928.2	86.9542	14,928.2	84.1564	14,928.2	84.5844	14,928.2	82.4753	14,928.2	83.511	14,928.2	80.2835	14,928.2	82.3234	14,928.2	78.4506	14,928.2	82.486	14,928.2	75.4673	14,928.2	78.6627	14,928.2	70.4955	14,928.2	75.0383	14,928.2	69.6259	14,928.2	73.1895	14,928.2	62.1419	14,928.2	67.6206	14,928.2	62.9583	14,928.2	67.9855	14,928.2	62.1294	14,928.2	65.1879	14,928.2	57.9224	14,928.2	64.0344	14,928.2	56.6612	14,928.2	65.7823	14,928.2	53.1997	14,928.2	61.9369	14,928.2	60.1045	14,928.2	59.7787	14,928.2	65.2574
15,455.6	88.3752	15,455.6	88.7499	15,455.6	88.3201	15,455.6	88.4619	15,455.6	87.5282	15,455.6	85.9321	15,455.6	86.9678	15,455.6	84.3185	15,455.6	85.1105	15,455.6	80.9649	15,455.6	83.0507	15,455.6	79.7742	15,455.6	80.5927	15,455.6	77.9986	15,455.6	81.2554	15,455.6	74.1909	15,455.6	78.9438	15,455.6	68.3849	15,455.6	73.7854	15,455.6	68.8556	15,455.6	72.5178	15,455.6	60.1814	15,455.6	66.5096	15,455.6	62.9626	15,455.6	65.2376	15,455.6	60.5228	15,455.6	60.7747	15,455.6	57.1954	15,455.6	63.4706	15,455.6	55.2498	15,455.6	64.4998	15,455.6	53.0782	15,455.6	60.5338	15,455.6	63.5404	15,455.6	56.5813	15,455.6	66.1196
16,000.5	85.2856	16,000.5	86.7138	16,000.5	84.8066	16,000.5	87.5192	16,000.5	85.3623	16,000.5	85.3655	16,000.5	85.9671	16,000.5	82.8716	16,000.5	84.4021	16,000.5	80.2767	16,000.5	81.8318	16,000.5	78.829	16,000.5	80.277	16,000.5	74.8447	16,000.5	79.4951	16,000.5	72.2211	16,000.5	77.681	16,000.5	66.9703	16,000.5	71.1369	16,000.5	67.3806	16,000.5	68.5156	16,000.5	58.7973	16,000.5	64.0726	16,000.5	61.4309	16,000.5	60.2014	16,000.5	58.7618	16,000.5	57.8269	16,000.5	53.4392	16,000.5	61.9823	16,000.5	54.8581	16,000.5	62.9137	16,000.5	55.075	16,000.5	56.682	16,000.5	64.4101	16,000.5	55.9976	16,000.5	65.4754
16,564.5	82.7031	16,564.5	84.9969	16,564.5	82.406	16,564.5	86.3286	16,564.5	85.2263	16,564.5	85.4135	16,564.5	85.6934	16,564.5	82.615	16,564.5	84.8853	16,564.5	80.7742	16,564.5	81.7203	16,564.5	79.1939	16,564.5	80.6009	16,564.5	75.0347	16,564.5	79.3688	16,564.5	75.7184	16,564.5	76.4999	16,564.5	67.7626	16,564.5	70.9521	16,564.5	65.8964	16,564.5	65.4263	16,564.5	64.3765	16,564.5	64.0939	16,564.5	62.0456	16,564.5	58.4171	16,564.5	58.163	16,564.5	61.8511	16,564.5	57.428	16,564.5	64.0736	16,564.5	57.561	16,564.5	61.9273	16,564.5	56.0081	16,564.5	56.5007	16,564.5	63.9119	16,564.5	55.8856	16,564.5	63.7337
17,148.9	87.6802	17,148.9	88.156	17,148.9	87.8198	17,148.9	88.1128	17,148.9	88.1051	17,148.9	86.1518	17,148.9	87.6141	17,148.9	82.1436	17,148.9	85.3632	17,148.9	75.8904	17,148.9	80.1758	17,148.9	70.7041	17,148.9	75.1223	17,148.9	63.7577	17,148.9	73.2075	17,148.9	62.6392	17,148.9	70.7287	17,148.9	51.1807	17,148.9	63.2351	17,148.9	42.7791	17,148.9	61.7557	17,148.9	48.3435	17,148.9	56.2611	17,148.9	49.5423	17,148.9	53.4454	17,148.9	49.1071	17,148.9	46.171	17,148.9	42.172	17,148.9	53.7126	17,148.9	53.975	17,148.9	50.596	17,148.9	58.0669	17,148.9	51.7701	17,148.9	54.2263	17,148.9	52.1841	17,148.9	51.5115
17,752.4	87.2754	17,752.4	87.1005	17,752.4	87.2002	17,752.4	86.8945	17,752.4	86.6163	17,752.4	84.6372	17,752.4	85.7888	17,752.4	80.0145	17,752.4	82.7906	17,752.4	73.5851	17,752.4	76.0951	17,752.4	68.8753	17,752.4	67.3967	17,752.4	66.7546	17,752.4	59.1009	17,752.4	65.8988	17,752.4	54.7817	17,752.4	62.4344	17,752.4	45.295	17,752.4	58.581	17,752.4	57.7257	17,752.4	53.6175	17,752.4	48.991	17,752.4	56.6945	17,752.4	56.4861	17,752.4	52.8165	17,752.4	49.7205	17,752.4	48.3088	17,752.4	30.8096	17,752.4	43.8199	17,752.4	42.8972	17,752.4	57.6452	17,752.4	52.6125	17,752.4	58.0955	17,752.4	53.2367	17,752.4	55.8536
18,379.4	87.127	18,379.4	86.4406	18,379.4	86.9985	18,379.4	85.5839	18,379.4	85.661	18,379.4	82.7682	18,379.4	84.2452	18,379.4	78.4318	18,379.4	80.4972	18,379.4	72.608	18,379.4	73.1	18,379.4	69.2736	18,379.4	43.8458	18,379.4	67.2922	18,379.4	48.6399	18,379.4	66.9988	18,379.4	54.2532	18,379.4	62.2369	18,379.4	53.5183	18,379.4	59.1055	18,379.4	54.7965	18,379.4	54.3075	18,379.4	51.8127	18,379.4	51.2804	18,379.4	52.2674	18,379.4	51.2168	18,379.4	40.1502	18,379.4	53.1705	18,379.4	45.7526	18,379.4	47.4879	18,379.4	46.5161	18,379.4	54.5716	18,379.4	55.4932	18,379.4	54.5644	18,379.4	50.2402	18,379.4	55.8149
19,026.9	86.9787	19,026.9	85.975	19,026.9	86.9578	19,026.9	84.2173	19,026.9	85.142	19,026.9	80.6914	19,026.9	82.5413	19,026.9	75.4869	19,026.9	78.2762	19,026.9	70.7381	19,026.9	68.4293	19,026.9	67.6471	19,026.9	56.1976	19,026.9	66.0888	19,026.9	55.2908	19,026.9	65.8647	19,026.9	53.719	19,026.9	60.3558	19,026.9	54.6919	19,026.9	56.8728	19,026.9	51.2392	19,026.9	51.8028	19,026.9	49.3453	19,026.9	48.703	19,026.9	48.1678	19,026.9	50.179	19,026.9	46.7368	19,026.9	53.5878	19,026.9	47.4109	19,026.9	45.7791	19,026.9	45.4942	19,026.9	49.6226	19,026.9	54.783	19,026.9	50.3701	19,026.9	49.8952	19,026.9	55.2492
19,697.8	86.6274	19,697.8	85.2124	19,697.8	86.5023	19,697.8	82.4425	19,697.8	84.1587	19,697.8	77.7342	19,697.8	80.2272	19,697.8	71.0481	19,697.8	74.9256	19,697.8	65.6946	19,697.8	63.7477	19,697.8	63.887	19,697.8	59.8655	19,697.8	62.2757	19,697.8	56.6091	19,697.8	60.7606	19,697.8	48.5896	19,697.8	55.0178	19,697.8	48.1767	19,697.8	53.4857	19,697.8	37.7723	19,697.8	47.0621	19,697.8	39.2085	19,697.8	47.3518	19,697.8	45.6257	19,697.8	51.0225	19,697.8	39.8494	19,697.8	53.2889	19,697.8	42.0219	19,697.8	43.5994	19,697.8	44.5989	19,697.8	42.5659	19,697.8	53.7274	19,697.8	50.5886	19,697.8	47.942	19,697.8	56.4945
19,999.5	86.1452	19,999.5	84.6753	19,999.5	86.0179	19,999.5	81.5843	19,999.5	83.4372	19,999.5	76.059	19,999.5	78.8108	19,999.5	68.1829	19,999.5	72.8697	19,999.5	58.6089	19,999.5	62.3241	19,999.5	60.9222	19,999.5	60.5794	19,999.5	56.7621	19,999.5	50.566	19,999.5	57.6441	19,999.5	46.3428	19,999.5	52.2611	19,999.5	50.6572	19,999.5	53.5133	19,999.5	50.6352	19,999.5	54.8191	19,999.5	46.102	19,999.5	55.7177	19,999.5	35.7561	19,999.5	50.5472	19,999.5	46.8627	19,999.5	53.247	19,999.5	51.4454	19,999.5	51.1646	19,999.5	53.6121	19,999.5	44.5323	19,999.5	53.4616	19,999.5	52.9954	19,999.5	47.6001	19,999.5	55.5486
