"SPL Vertical"																																																																							
"On-Axis"		"10°"		"-10°"		"20°"		"-20°"		"30°"		"-30°"		"40°"		"-40°"		"50°"		"-50°"		"60°"		"-60°"		"70°"		"-70°"		"80°"		"-80°"		"90°"		"-90°"		"100°"		"-100°"		"110°"		"-110°"		"120°"		"-120°"		"130°"		"-130°"		"140°"		"-140°"		"150°"		"-150°"		"160°"		"-160°"		"170°"		"-170°"		"180°"	
"Frequency [Hz]"	"Sound Pessure Level [dB]  / [2.83V 1m] "	"Frequency [Hz]"	"Sound Pessure Level [dB]  / [2.83V 1m] "	"Frequency [Hz]"	"Sound Pessure Level [dB]  / [2.83V 1m] "	"Frequency [Hz]"	"Sound Pessure Level [dB]  / [2.83V 1m] "	"Frequency [Hz]"	"Sound Pessure Level [dB]  / [2.83V 1m] "	"Frequency [Hz]"	"Sound Pessure Level [dB]  / [2.83V 1m] "	"Frequency [Hz]"	"Sound Pessure Level [dB]  / [2.83V 1m] "	"Frequency [Hz]"	"Sound Pessure Level [dB]  / [2.83V 1m] "	"Frequency [Hz]"	"Sound Pessure Level [dB]  / [2.83V 1m] "	"Frequency [Hz]"	"Sound Pessure Level [dB]  / [2.83V 1m] "	"Frequency [Hz]"	"Sound Pessure Level [dB]  / [2.83V 1m] "	"Frequency [Hz]"	"Sound Pessure Level [dB]  / [2.83V 1m] "	"Frequency [Hz]"	"Sound Pessure Level [dB]  / [2.83V 1m] "	"Frequency [Hz]"	"Sound Pessure Level [dB]  / [2.83V 1m] "	"Frequency [Hz]"	"Sound Pessure Level [dB]  / [2.83V 1m] "	"Frequency [Hz]"	"Sound Pessure Level [dB]  / [2.83V 1m] "	"Frequency [Hz]"	"Sound Pessure Level [dB]  / [2.83V 1m] "	"Frequency [Hz]"	"Sound Pessure Level [dB]  / [2.83V 1m] "	"Frequency [Hz]"	"Sound Pessure Level [dB]  / [2.83V 1m] "	"Frequency [Hz]"	"Sound Pessure Level [dB]  / [2.83V 1m] "	"Frequency [Hz]"	"Sound Pessure Level [dB]  / [2.83V 1m] "	"Frequency [Hz]"	"Sound Pessure Level [dB]  / [2.83V 1m] "	"Frequency [Hz]"	"Sound Pessure Level [dB]  / [2.83V 1m] "	"Frequency [Hz]"	"Sound Pessure Level [dB]  / [2.83V 1m] "	"Frequency [Hz]"	"Sound Pessure Level [dB]  / [2.83V 1m] "	"Frequency [Hz]"	"Sound Pessure Level [dB]  / [2.83V 1m] "	"Frequency [Hz]"	"Sound Pessure Level [dB]  / [2.83V 1m] "	"Frequency [Hz]"	"Sound Pessure Level [dB]  / [2.83V 1m] "	"Frequency [Hz]"	"Sound Pessure Level [dB]  / [2.83V 1m] "	"Frequency [Hz]"	"Sound Pessure Level [dB]  / [2.83V 1m] "	"Frequency [Hz]"	"Sound Pessure Level [dB]  / [2.83V 1m] "	"Frequency [Hz]"	"Sound Pessure Level [dB]  / [2.83V 1m] "	"Frequency [Hz]"	"Sound Pessure Level [dB]  / [2.83V 1m] "	"Frequency [Hz]"	"Sound Pessure Level [dB]  / [2.83V 1m] "	"Frequency [Hz]"	"Sound Pessure Level [dB]  / [2.83V 1m] "	"Frequency [Hz]"	"Sound Pessure Level [dB]  / [2.83V 1m] "
20.5078	56.3021	20.5078	56.2225	20.5078	56.3733	20.5078	56.1376	20.5078	56.433	20.5078	56.0506	20.5078	56.479	20.5078	55.9647	20.5078	56.5093	20.5078	55.8829	20.5078	56.5229	20.5078	55.8077	20.5078	56.5196	20.5078	55.7413	20.5078	56.4999	20.5078	55.6854	20.5078	56.465	20.5078	55.6415	20.5078	56.4168	20.5078	55.6102	20.5078	56.3578	20.5078	55.5922	20.5078	56.2905	20.5078	55.5873	20.5078	56.2177	20.5078	55.5952	20.5078	56.1422	20.5078	55.615	20.5078	56.0662	20.5078	55.6457	20.5078	55.9917	20.5078	55.6861	20.5078	55.9203	20.5078	55.7349	20.5078	55.853	20.5078	55.7909
21.9727	55.9901	21.9727	55.9214	21.9727	56.0585	21.9727	55.8548	21.9727	56.1238	21.9727	55.7926	21.9727	56.1832	21.9727	55.7365	21.9727	56.2341	21.9727	55.688	21.9727	56.2744	21.9727	55.6481	21.9727	56.303	21.9727	55.6178	21.9727	56.3193	21.9727	55.5977	21.9727	56.3236	21.9727	55.5885	21.9727	56.3168	21.9727	55.5904	21.9727	56.3001	21.9727	55.6036	21.9727	56.275	21.9727	55.6277	21.9727	56.2428	21.9727	55.6622	21.9727	56.2042	21.9727	55.706	21.9727	56.1599	21.9727	55.7574	21.9727	56.1104	21.9727	55.8146	21.9727	56.0561	21.9727	55.8752	21.9727	55.9979	21.9727	55.937
23.4375	58.0925	23.4375	58.0111	23.4375	58.1708	23.4375	57.9297	23.4375	58.243	23.4375	57.8511	23.4375	58.3062	23.4375	57.7781	23.4375	58.3584	23.4375	57.7131	23.4375	58.3977	23.4375	57.6581	23.4375	58.4233	23.4375	57.6147	23.4375	58.4351	23.4375	57.5841	23.4375	58.4336	23.4375	57.5672	23.4375	58.4197	23.4375	57.5645	23.4375	58.3949	23.4375	57.5759	23.4375	58.3607	23.4375	57.6009	23.4375	58.3185	23.4375	57.6386	23.4375	58.2695	23.4375	57.6874	23.4375	58.2145	23.4375	57.7453	23.4375	58.1543	23.4375	57.8102	23.4375	58.0895	23.4375	57.8794	23.4375	58.0212	23.4375	57.9505
24.9023	58.3184	24.9023	58.2456	24.9023	58.3901	24.9023	58.1739	24.9023	58.4581	24.9023	58.1051	24.9023	58.5199	24.9023	58.0412	24.9023	58.5729	24.9023	57.9835	24.9023	58.6148	24.9023	57.9335	24.9023	58.6439	24.9023	57.8924	24.9023	58.6587	24.9023	57.8613	24.9023	58.6589	24.9023	57.841	24.9023	58.6447	24.9023	57.8321	24.9023	58.6172	24.9023	57.835	24.9023	58.578	24.9023	57.8496	24.9023	58.5291	24.9023	57.8755	24.9023	58.4724	24.9023	57.9121	24.9023	58.41	24.9023	57.9582	24.9023	58.3438	24.9023	58.0124	24.9023	58.2753	24.9023	58.073	24.9023	58.2062	24.9023	58.1382
26.3672	59.3607	26.3672	59.2798	26.3672	59.4359	26.3672	59.1961	26.3672	59.5026	26.3672	59.1124	26.3672	59.5583	26.3672	59.0314	26.3672	59.6009	26.3672	58.9555	26.3672	59.6287	26.3672	58.887	26.3672	59.6408	26.3672	58.8276	26.3672	59.6366	26.3672	58.7787	26.3672	59.6166	26.3672	58.7415	26.3672	59.5817	26.3672	58.7168	26.3672	59.5334	26.3672	58.7048	26.3672	59.4739	26.3672	58.7058	26.3672	59.4055	26.3672	58.7194	26.3672	59.331	26.3672	58.7452	26.3672	59.2529	26.3672	58.7822	26.3672	59.1737	26.3672	58.8295	26.3672	59.0955	26.3672	58.8859	26.3672	59.0204	26.3672	58.95
27.832	60.0118	27.832	59.9391	27.832	60.0793	27.832	59.8634	27.832	60.1393	27.832	59.7869	27.832	60.1897	27.832	59.7118	27.832	60.2286	27.832	59.6402	27.832	60.2544	27.832	59.5739	27.832	60.2659	27.832	59.5149	27.832	60.2623	27.832	59.4647	27.832	60.2438	27.832	59.4246	27.832	60.2109	27.832	59.3958	27.832	60.165	27.832	59.379	27.832	60.108	27.832	59.3747	27.832	60.042	27.832	59.3831	27.832	59.9696	27.832	59.4038	27.832	59.8932	27.832	59.4364	27.832	59.8154	27.832	59.4801	27.832	59.7385	27.832	59.5337	27.832	59.6646	27.832	59.5957
29.2969	60.5935	29.2969	60.5138	29.2969	60.6707	29.2969	60.4338	29.2969	60.7429	29.2969	60.3558	29.2969	60.8075	29.2969	60.2816	29.2969	60.8619	29.2969	60.2132	29.2969	60.904	29.2969	60.1522	29.2969	60.9317	29.2969	60.1	29.2969	60.9439	29.2969	60.058	29.2969	60.9398	29.2969	60.0274	29.2969	60.9198	29.2969	60.0091	29.2969	60.8847	29.2969	60.0037	29.2969	60.8361	29.2969	60.0115	29.2969	60.7759	29.2969	60.0325	29.2969	60.7066	29.2969	60.0664	29.2969	60.6305	29.2969	60.1122	29.2969	60.5502	29.2969	60.1689	29.2969	60.468	29.2969	60.2348	29.2969	60.3866	29.2969	60.3081
30.7617	61.1755	30.7617	61.1015	30.7617	61.2479	30.7617	61.0283	30.7617	61.316	30.7617	60.9583	30.7617	61.3773	30.7617	60.8933	30.7617	61.4294	30.7617	60.8351	30.7617	61.4702	30.7617	60.785	30.7617	61.4981	30.7617	60.7444	30.7617	61.5121	30.7617	60.7141	30.7617	61.5119	30.7617	60.6948	30.7617	61.4979	30.7617	60.6871	30.7617	61.471	30.7617	60.6911	30.7617	61.4327	30.7617	60.7066	30.7617	61.3848	30.7617	60.7333	30.7617	61.329	30.7617	60.7703	30.7617	61.2673	30.7617	60.8166	30.7617	61.2015	30.7617	60.8708	30.7617	61.1333	30.7617	60.9313	30.7617	61.0644	30.7617	60.9964
32.2266	62.1602	32.2266	62.0812	32.2266	62.2366	32.2266	62.002	32.2266	62.3077	32.2266	61.9249	32.2266	62.3708	32.2266	61.8518	32.2266	62.4233	32.2266	61.7846	32.2266	62.4629	32.2266	61.7249	32.2266	62.4876	32.2266	61.6741	32.2266	62.4963	32.2266	61.6334	32.2266	62.4888	32.2266	61.604	32.2266	62.4653	32.2266	61.5865	32.2266	62.4274	32.2266	61.5815	32.2266	62.3768	32.2266	61.5891	32.2266	62.3158	32.2266	61.6093	32.2266	62.2471	32.2266	61.6414	32.2266	62.1731	32.2266	61.6846	32.2266	62.0961	32.2266	61.7378	32.2266	62.0182	32.2266	61.7995	32.2266	61.9416	32.2266	61.868
33.6914	62.8967	33.6914	62.8133	33.6914	62.9731	33.6914	62.7257	33.6914	63.0398	33.6914	62.6367	33.6914	63.0943	33.6914	62.5489	33.6914	63.1346	33.6914	62.465	33.6914	63.159	33.6914	62.3871	33.6914	63.1662	33.6914	62.3171	33.6914	63.1557	33.6914	62.2567	33.6914	63.1276	33.6914	62.2071	33.6914	63.0826	33.6914	62.1695	33.6914	63.0225	33.6914	62.1446	33.6914	62.9495	33.6914	62.133	33.6914	62.8666	33.6914	62.135	33.6914	62.7769	33.6914	62.1506	33.6914	62.6841	33.6914	62.1797	33.6914	62.5913	33.6914	62.222	33.6914	62.5018	33.6914	62.2765	33.6914	62.418	33.6914	62.3423
35.1562	63.2836	35.1562	63.2031	35.1562	63.3605	35.1562	63.1213	35.1562	63.431	35.1562	63.0407	35.1562	63.4928	35.1562	62.9635	35.1562	63.5434	35.1562	62.8917	35.1562	63.5808	35.1562	62.8271	35.1562	63.6033	35.1562	62.7715	35.1562	63.6099	35.1562	62.7261	35.1562	63.6002	35.1562	62.6922	35.1562	63.5746	35.1562	62.6705	35.1562	63.5342	35.1562	62.6618	35.1562	63.4807	35.1562	62.6663	35.1562	63.4165	35.1562	62.6839	35.1562	63.3439	35.1562	62.7144	35.1562	63.2656	35.1562	62.757	35.1562	63.1841	35.1562	62.8105	35.1562	63.1019	35.1562	62.8736	35.1562	63.0213	35.1562	62.9445
36.6211	63.8839	36.6211	63.8011	36.6211	63.9638	36.6211	63.7182	36.6211	64.0382	36.6211	63.6373	36.6211	64.1042	36.6211	63.5608	36.6211	64.1591	36.6211	63.4905	36.6211	64.2003	36.6211	63.428	36.6211	64.2259	36.6211	63.3749	36.6211	64.2347	36.6211	63.3323	36.6211	64.226	36.6211	63.3012	36.6211	64.2002	36.6211	63.2823	36.6211	64.1587	36.6211	63.2761	36.6211	64.1034	36.6211	63.2828	36.6211	64.0369	36.6211	63.3021	36.6211	63.9622	36.6211	63.3335	36.6211	63.8822	36.6211	63.3763	36.6211	63.7997	36.6211	63.4294	36.6211	63.7173	36.6211	63.4916	36.6211	63.6372	36.6211	63.5614
38.0859	64.4449	38.0859	64.3596	38.0859	64.5262	38.0859	64.273	38.0859	64.6009	38.0859	64.1878	38.0859	64.6663	38.0859	64.1062	38.0859	64.7197	38.0859	64.0306	38.0859	64.759	38.0859	63.9629	38.0859	64.7824	38.0859	63.9048	38.0859	64.7889	38.0859	63.858	38.0859	64.7781	38.0859	63.8234	38.0859	64.7505	38.0859	63.8021	38.0859	64.7074	38.0859	63.7946	38.0859	64.6507	38.0859	63.8009	38.0859	64.583	38.0859	63.8209	38.0859	64.5068	38.0859	63.854	38.0859	64.4252	38.0859	63.8992	38.0859	64.3406	38.0859	63.9552	38.0859	64.2558	38.0859	64.0207	38.0859	64.1728	38.0859	64.0938
39.5508	65.3303	39.5508	65.2492	39.5508	65.4089	39.5508	65.168	39.5508	65.4824	39.5508	65.0892	39.5508	65.5483	39.5508	65.015	39.5508	65.604	39.5508	64.9472	39.5508	65.6474	39.5508	64.8875	39.5508	65.6767	39.5508	64.8373	39.5508	65.6905	39.5508	64.7978	39.5508	65.6881	39.5508	64.7699	39.5508	65.6695	39.5508	64.7541	39.5508	65.6353	39.5508	64.7508	39.5508	65.5869	39.5508	64.7601	39.5508	65.5262	39.5508	64.7818	39.5508	65.4557	39.5508	64.8154	39.5508	65.3781	39.5508	64.8604	39.5508	65.2963	39.5508	64.9157	39.5508	65.213	39.5508	64.9804	39.5508	65.131	39.5508	65.0527
41.0156	65.7492	41.0156	65.6695	41.0156	65.8228	41.0156	65.5863	41.0156	65.8878	41.0156	65.502	41.0156	65.9416	41.0156	65.419	41.0156	65.982	41.0156	65.3394	41.0156	66.0068	41.0156	65.2648	41.0156	66.0147	41.0156	65.1969	41.0156	66.0046	41.0156	65.1369	41.0156	65.9762	41.0156	65.0858	41.0156	65.9301	41.0156	65.0445	41.0156	65.8676	41.0156	65.0139	41.0156	65.7908	41.0156	64.9945	41.0156	65.7028	41.0156	64.9872	41.0156	65.607	41.0156	64.9927	41.0156	65.5075	41.0156	65.0116	41.0156	65.4086	41.0156	65.0447	41.0156	65.3144	41.0156	65.0921	41.0156	65.2285	41.0156	65.1537
42.4805	66.0417	42.4805	65.9589	42.4805	66.1182	42.4805	65.8718	42.4805	66.186	42.4805	65.7829	42.4805	66.2429	42.4805	65.6945	42.4805	66.2869	42.4805	65.6094	42.4805	66.316	42.4805	65.5299	42.4805	66.3289	42.4805	65.4585	42.4805	66.3246	42.4805	65.3975	42.4805	66.3032	42.4805	65.3489	42.4805	66.2655	42.4805	65.3143	42.4805	66.2132	42.4805	65.2948	42.4805	66.1487	42.4805	65.291	42.4805	66.0745	42.4805	65.3031	42.4805	65.9935	42.4805	65.3305	42.4805	65.9081	42.4805	65.3724	42.4805	65.8206	42.4805	65.4271	42.4805	65.7332	42.4805	65.4927	42.4805	65.648	42.4805	65.5671
43.9453	66.999	43.9453	66.9175	43.9453	67.0749	43.9453	66.8329	43.9453	67.1429	43.9453	66.7474	43.9453	67.2004	43.9453	66.6632	43.9453	67.2449	43.9453	66.5824	43.9453	67.2744	43.9453	66.5069	43.9453	67.287	43.9453	66.4386	43.9453	67.2819	43.9453	66.379	43.9453	67.2586	43.9453	66.3298	43.9453	67.2179	43.9453	66.292	43.9453	67.1613	43.9453	66.2669	43.9453	67.091	43.9453	66.2552	43.9453	67.0099	43.9453	66.2575	43.9453	66.9211	43.9453	66.2741	43.9453	66.8281	43.9453	66.3049	43.9453	66.7341	43.9453	66.3495	43.9453	66.6422	43.9453	66.4071	43.9453	66.5555	43.9453	66.4763
45.4102	67.7586	45.4102	67.6796	45.4102	67.8325	45.4102	67.5978	45.4102	67.8985	45.4102	67.5159	45.4102	67.9543	45.4102	67.436	45.4102	67.9976	45.4102	67.3603	45.4102	68.0265	45.4102	67.2908	45.4102	68.0396	45.4102	67.2292	45.4102	68.0364	45.4102	67.177	45.4102	68.0168	45.4102	67.1356	45.4102	67.9817	45.4102	67.1059	45.4102	67.9325	45.4102	67.0886	45.4102	67.8712	45.4102	67.0844	45.4102	67.8004	45.4102	67.0935	45.4102	67.7225	45.4102	67.1155	45.4102	67.6404	45.4102	67.1503	45.4102	67.5567	45.4102	67.1968	45.4102	67.474	45.4102	67.254	45.4102	67.3945	45.4102	67.3205
46.875	68.1572	46.875	68.0788	46.875	68.2307	46.875	67.9979	46.875	68.2968	46.875	67.9169	46.875	68.3529	46.875	67.8379	46.875	68.3967	46.875	67.763	46.875	68.4262	46.875	67.6938	46.875	68.4399	46.875	67.6322	46.875	68.437	46.875	67.5795	46.875	68.4173	46.875	67.537	46.875	68.3814	46.875	67.5056	46.875	68.3309	46.875	67.4861	46.875	68.2677	46.875	67.4792	46.875	68.1943	46.875	67.4851	46.875	68.1135	46.875	67.504	46.875	68.0282	46.875	67.5356	46.875	67.9416	46.875	67.5796	46.875	67.8564	46.875	67.6351	46.875	67.7754	46.875	67.7009
48.3398	68.7183	48.3398	68.6399	48.3398	68.793	48.3398	68.5602	48.3398	68.8614	48.3398	68.4813	48.3398	68.9209	48.3398	68.4052	48.3398	68.969	48.3398	68.3337	48.3398	69.0035	48.3398	68.2683	48.3398	69.0225	48.3398	68.2106	48.3398	69.0249	48.3398	68.1618	48.3398	69.0103	48.3398	68.1228	48.3398	68.979	48.3398	68.0947	48.3398	68.9323	48.3398	68.078	48.3398	68.872	48.3398	68.0734	48.3398	68.8004	48.3398	68.0812	48.3398	68.7205	48.3398	68.1016	48.3398	68.6353	48.3398	68.1345	48.3398	68.548	48.3398	68.1797	48.3398	68.4616	48.3398	68.2364	48.3398	68.3793	48.3398	68.3035
51.2695	69.6528	51.2695	69.5721	51.2695	69.7283	51.2695	69.4888	51.2695	69.7961	51.2695	69.4057	51.2695	69.8537	51.2695	69.3251	51.2695	69.8991	51.2695	69.2496	51.2695	69.9307	51.2695	69.1811	51.2695	69.9472	51.2695	69.1217	51.2695	69.9482	51.2695	69.0729	51.2695	69.9338	51.2695	69.036	51.2695	69.9045	51.2695	69.0118	51.2695	69.8617	51.2695	69.0008	51.2695	69.8069	51.2695	69.0033	51.2695	69.7422	51.2695	69.0191	51.2695	69.6696	51.2695	69.0477	51.2695	69.5915	51.2695	69.0885	51.2695	69.5103	51.2695	69.1405	51.2695	69.4284	51.2695	69.2022	51.2695	69.3482	51.2695	69.2721
52.7344	70.0859	52.7344	70.0024	52.7344	70.1636	52.7344	69.9158	52.7344	70.2325	52.7344	69.8292	52.7344	70.2904	52.7344	69.7456	52.7344	70.3352	52.7344	69.6675	52.7344	70.3657	52.7344	69.5975	52.7344	70.3811	52.7344	69.5375	52.7344	70.3811	52.7344	69.4892	52.7344	70.3662	52.7344	69.4537	52.7344	70.3372	52.7344	69.4318	52.7344	70.2954	52.7344	69.4239	52.7344	70.2424	52.7344	69.43	52.7344	70.18	52.7344	69.4497	52.7344	70.11	52.7344	69.4824	52.7344	70.0345	52.7344	69.527	52.7344	69.9554	52.7344	69.5822	52.7344	69.8748	52.7344	69.6466	52.7344	69.795	52.7344	69.7182
54.1992	70.3938	54.1992	70.3143	54.1992	70.4672	54.1992	70.2314	54.1992	70.532	54.1992	70.1479	54.1992	70.5861	54.1992	70.0666	54.1992	70.6275	54.1992	69.9901	54.1992	70.6552	54.1992	69.9208	54.1992	70.6681	54.1992	69.8608	54.1992	70.6661	54.1992	69.8117	54.1992	70.6495	54.1992	69.775	54.1992	70.619	54.1992	69.7513	54.1992	70.576	54.1992	69.7413	54.1992	70.5222	54.1992	69.745	54.1992	70.4597	54.1992	69.7621	54.1992	70.3903	54.1992	69.7918	54.1992	70.3163	54.1992	69.8331	54.1992	70.2395	54.1992	69.8849	54.1992	70.1621	54.1992	69.9454	54.1992	70.0859	54.1992	70.0131
55.6641	70.9771	55.6641	70.8969	55.6641	71.0509	55.6641	70.8131	55.6641	71.1161	55.6641	70.7282	55.6641	71.1703	55.6641	70.6447	55.6641	71.2113	55.6641	70.565	55.6641	71.2375	55.6641	70.4913	55.6641	71.2475	55.6641	70.4256	55.6641	71.2405	55.6641	70.3693	55.6641	71.2167	55.6641	70.3239	55.6641	71.1767	55.6641	70.2904	55.6641	71.1222	55.6641	70.2694	55.6641	71.0552	55.6641	70.2615	55.6641	70.9785	55.6641	70.2667	55.6641	70.8951	55.6641	70.2851	55.6641	70.808	55.6641	70.3163	55.6641	70.7202	55.6641	70.3597	55.6641	70.6346	55.6641	70.4146	55.6641	70.5537	55.6641	70.4797
58.5938	72.0842	58.5938	72.005	58.5938	72.1583	58.5938	71.9234	58.5938	72.2248	58.5938	71.8419	58.5938	72.2813	58.5938	71.7631	58.5938	72.3257	58.5938	71.6893	58.5938	72.3564	58.5938	71.6225	58.5938	72.3723	58.5938	71.5647	58.5938	72.3727	58.5938	71.5173	58.5938	72.3579	58.5938	71.4814	58.5938	72.3285	58.5938	71.4578	58.5938	72.2858	58.5938	71.447	58.5938	72.2314	58.5938	71.4491	58.5938	72.1672	58.5938	71.4638	58.5938	72.0954	58.5938	71.4909	58.5938	72.0182	58.5938	71.5295	58.5938	71.9381	58.5938	71.579	58.5938	71.8577	58.5938	71.6381	58.5938	71.7794	58.5938	71.7055
60.0586	72.3354	60.0586	72.2557	60.0586	72.4087	60.0586	72.1723	60.0586	72.4731	60.0586	72.0881	60.0586	72.5262	60.0586	72.006	60.0586	72.5664	60.0586	71.9287	60.0586	72.5925	60.0586	71.8589	60.0586	72.604	60.0586	71.7989	60.0586	72.6009	60.0586	71.7504	60.0586	72.5839	60.0586	71.7149	60.0586	72.5543	60.0586	71.6934	60.0586	72.5134	60.0586	71.6862	60.0586	72.4631	60.0586	71.6933	60.0586	72.405	60.0586	71.7141	60.0586	72.3407	60.0586	71.7478	60.0586	72.2717	60.0586	71.7928	60.0586	72.1994	60.0586	71.8476	60.0586	72.1253	60.0586	71.9103	60.0586	72.0512	60.0586	71.9788
62.9883	73.2121	62.9883	73.1277	62.9883	73.29	62.9883	73.0396	62.9883	73.3587	62.9883	72.9509	62.9883	73.4157	62.9883	72.8644	62.9883	73.4591	62.9883	72.7829	62.9883	73.4873	62.9883	72.709	62.9883	73.4996	62.9883	72.6449	62.9883	73.4956	62.9883	72.5924	62.9883	73.4759	62.9883	72.5529	62.9883	73.4414	62.9883	72.5272	62.9883	73.3937	62.9883	72.516	62.9883	73.3348	62.9883	72.519	62.9883	73.2669	62.9883	72.5358	62.9883	73.1921	62.9883	72.5658	62.9883	73.1128	62.9883	72.6079	62.9883	73.031	62.9883	72.6608	62.9883	72.949	62.9883	72.723	62.9883	72.869	62.9883	72.793
64.4531	73.6043	64.4531	73.5191	64.4531	73.6827	64.4531	73.43	64.4531	73.7517	64.4531	73.3398	64.4531	73.8086	64.4531	73.2513	64.4531	73.8515	64.4531	73.1673	64.4531	73.8787	64.4531	73.0904	64.4531	73.8891	64.4531	73.0228	64.4531	73.8825	64.4531	72.9665	64.4531	73.8592	64.4531	72.9229	64.4531	73.8204	64.4531	72.8933	64.4531	73.7679	64.4531	72.8783	64.4531	73.704	64.4531	72.8779	64.4531	73.6311	64.4531	72.8919	64.4531	73.5519	64.4531	72.9195	64.4531	73.4688	64.4531	72.9598	64.4531	73.3842	64.4531	73.0114	64.4531	73.3003	64.4531	73.073	64.4531	73.2192	64.4531	73.1428
67.3828	74.5686	67.3828	74.48	67.3828	74.6476	67.3828	74.3848	67.3828	74.7141	67.3828	74.2861	67.3828	74.7659	67.3828	74.1872	67.3828	74.8009	67.3828	74.0912	67.3828	74.818	67.3828	74.0009	67.3828	74.8166	67.3828	73.9189	67.3828	74.7969	67.3828	73.8475	67.3828	74.7598	67.3828	73.7887	67.3828	74.7069	67.3828	73.7439	67.3828	74.6405	67.3828	73.7142	67.3828	74.5628	67.3828	73.7002	67.3828	74.4766	67.3828	73.702	67.3828	74.3845	67.3828	73.7196	67.3828	74.2892	67.3828	73.7523	67.3828	74.1936	67.3828	73.7992	67.3828	74.1002	67.3828	73.8592	67.3828	74.0117	67.3828	73.9307
68.8477	74.8997	68.8477	74.8152	68.8477	74.9743	68.8477	74.7237	68.8477	75.0365	68.8477	74.6284	68.8477	75.0842	68.8477	74.5324	68.8477	75.1159	68.8477	74.439	68.8477	75.1306	68.8477	74.3511	68.8477	75.128	68.8477	74.2714	68.8477	75.1084	68.8477	74.2022	68.8477	75.0728	68.8477	74.1453	68.8477	75.0225	68.8477	74.1021	68.8477	74.9595	68.8477	74.0736	68.8477	74.8859	68.8477	74.0602	68.8477	74.804	68.8477	74.0621	68.8477	74.7164	68.8477	74.079	68.8477	74.6256	68.8477	74.1105	68.8477	74.5342	68.8477	74.1557	68.8477	74.4447	68.8477	74.2133	68.8477	74.3598	68.8477	74.282
71.7773	75.5866	71.7773	75.5028	71.7773	75.6616	71.7773	75.4132	71.7773	75.725	71.7773	75.321	71.7773	75.7747	71.7773	75.2295	71.7773	75.8086	71.7773	75.1416	71.7773	75.826	71.7773	75.0602	71.7773	75.8264	71.7773	74.9878	71.7773	75.8103	71.7773	74.9265	71.7773	75.7788	71.7773	74.8779	71.7773	75.7337	71.7773	74.8431	71.7773	75.6769	71.7773	74.8229	71.7773	75.6106	71.7773	74.8173	71.7773	75.537	71.7773	74.8262	71.7773	75.4582	71.7773	74.849	71.7773	75.3763	71.7773	74.8849	71.7773	75.2933	71.7773	74.9327	71.7773	75.2112	71.7773	74.9909	71.7773	75.132	71.7773	75.0579
74.707	76.2282	74.707	76.1465	74.707	76.3016	74.707	76.0595	74.707	76.3639	74.707	75.9705	74.707	76.4132	74.707	75.8829	74.707	76.4478	74.707	75.7998	74.707	76.4669	74.707	75.7242	74.707	76.4704	74.707	75.6585	74.707	76.4588	74.707	75.6048	74.707	76.4332	74.707	75.5644	74.707	76.395	74.707	75.538	74.707	76.3459	74.707	75.526	74.707	76.2877	74.707	75.5281	74.707	76.2225	74.707	75.5435	74.707	76.1518	74.707	75.5713	74.707	76.0776	74.707	75.6104	74.707	76.0016	74.707	75.6594	74.707	75.9258	74.707	75.717	74.707	75.8518	74.707	75.7817
77.6367	76.9899	77.6367	76.9073	77.6367	77.0646	77.6367	76.8198	77.6367	77.1287	77.6367	76.7306	77.6367	77.1802	77.6367	76.6431	77.6367	77.2175	77.6367	76.5605	77.6367	77.2395	77.6367	76.4856	77.6367	77.2461	77.6367	76.4211	77.6367	77.2376	77.6367	76.369	77.6367	77.215	77.6367	76.3306	77.6367	77.1796	77.6367	76.3068	77.6367	77.133	77.6367	76.2977	77.6367	77.0772	77.6367	76.3029	77.6367	77.0138	77.6367	76.3216	77.6367	76.9446	77.6367	76.3528	77.6367	76.8713	77.6367	76.395	77.6367	76.7957	77.6367	76.4468	77.6367	76.7197	77.6367	76.5068	77.6367	76.6449	77.6367	76.5734
79.1016	77.3674	79.1016	77.284	79.1016	77.4417	79.1016	77.1945	79.1016	77.5043	79.1016	77.1022	79.1016	77.553	79.1016	77.0106	79.1016	77.5865	79.1016	76.9231	79.1016	77.6039	79.1016	76.8429	79.1016	77.6053	79.1016	76.7729	79.1016	77.5913	79.1016	76.7152	79.1016	77.5632	79.1016	76.6716	79.1016	77.5225	79.1016	76.6432	79.1016	77.4714	79.1016	76.6304	79.1016	77.4118	79.1016	76.6328	79.1016	77.3456	79.1016	76.6496	79.1016	77.2746	79.1016	76.6798	79.1016	77.2003	79.1016	76.7218	79.1016	77.1243	79.1016	76.7738	79.1016	77.048	79.1016	76.8343	79.1016	76.9731	79.1016	76.9013
82.0312	78.1527	82.0312	78.0695	82.0312	78.2244	82.0312	77.978	82.0312	78.2824	82.0312	77.8813	82.0312	78.3247	82.0312	77.7828	82.0312	78.35	82.0312	77.6861	82.0312	78.3576	82.0312	77.5945	82.0312	78.3477	82.0312	77.5109	82.0312	78.3209	82.0312	77.4381	82.0312	78.2787	82.0312	77.3781	82.0312	78.2229	82.0312	77.3325	82.0312	78.1559	82.0312	77.3023	82.0312	78.0801	82.0312	77.2879	82.0312	77.9981	82.0312	77.2891	82.0312	77.9121	82.0312	77.3054	82.0312	77.8245	82.0312	77.3359	82.0312	77.7373	82.0312	77.3793	82.0312	77.6527	82.0312	77.4343	82.0312	77.5728	82.0312	77.4994
84.9609	78.7842	84.9609	78.6992	84.9609	78.8593	84.9609	78.607	84.9609	78.9221	84.9609	78.5105	84.9609	78.9707	84.9609	78.4128	84.9609	79.0034	84.9609	78.317	84.9609	79.019	84.9609	78.2261	84.9609	79.0168	84.9609	78.1427	84.9609	78.9966	84.9609	78.0693	84.9609	78.9589	84.9609	78.0074	84.9609	78.9048	84.9609	77.9585	84.9609	78.8358	84.9609	77.9232	84.9609	78.7541	84.9609	77.9023	84.9609	78.6622	84.9609	77.8959	84.9609	78.5632	84.9609	77.9044	84.9609	78.4605	84.9609	77.9278	84.9609	78.3579	84.9609	77.9664	84.9609	78.2592	84.9609	78.0199	84.9609	78.1681	84.9609	78.0875
87.8906	78.8173	87.8906	78.7229	87.8906	78.912	87.8906	78.6331	87.8906	79.003	87.8906	78.5521	87.8906	79.087	87.8906	78.4839	87.8906	79.1613	87.8906	78.4315	87.8906	79.2245	87.8906	78.3976	87.8906	79.276	87.8906	78.3834	87.8906	79.3162	87.8906	78.3895	87.8906	79.3459	87.8906	78.4153	87.8906	79.3662	87.8906	78.4595	87.8906	79.3778	87.8906	78.5197	87.8906	79.381	87.8906	78.5931	87.8906	79.3755	87.8906	78.6763	87.8906	79.3606	87.8906	78.7659	87.8906	79.3351	87.8906	78.8581	87.8906	79.2982	87.8906	78.9496	87.8906	79.2494	87.8906	79.0369	87.8906	79.1889	87.8906	79.1175
90.8203	79.9061	90.8203	79.8254	90.8203	79.9818	90.8203	79.7425	90.8203	80.0499	90.8203	79.6604	90.8203	80.1081	90.8203	79.5822	90.8203	80.1546	90.8203	79.5108	90.8203	80.1885	90.8203	79.4491	90.8203	80.2094	90.8203	79.3993	90.8203	80.2177	90.8203	79.3634	90.8203	80.214	90.8203	79.3426	90.8203	80.1996	90.8203	79.3376	90.8203	80.1754	90.8203	79.3481	90.8203	80.1424	90.8203	79.3732	90.8203	80.1014	90.8203	79.4115	90.8203	80.0527	90.8203	79.461	90.8203	79.9972	90.8203	79.5196	90.8203	79.9355	90.8203	79.585	90.8203	79.8689	90.8203	79.6547	90.8203	79.7987	90.8203	79.7267
95.2148	80.8887	95.2148	80.8085	95.2148	80.9557	95.2148	80.7179	95.2148	81.0077	95.2148	80.6207	95.2148	81.0438	95.2148	80.5213	95.2148	81.0643	95.2148	80.4245	95.2148	81.0701	95.2148	80.3351	95.2148	81.0631	95.2148	80.2576	95.2148	81.0457	95.2148	80.196	95.2148	81.0206	95.2148	80.1531	95.2148	80.9903	95.2148	80.1306	95.2148	80.9568	95.2148	80.1291	95.2148	80.9211	95.2148	80.1478	95.2148	80.8829	95.2148	80.1848	95.2148	80.841	95.2148	80.2374	95.2148	80.7935	95.2148	80.3023	95.2148	80.7391	95.2148	80.3756	95.2148	80.6768	95.2148	80.4534	95.2148	80.6071	95.2148	80.5317
98.1445	81.6133	98.1445	81.5245	98.1445	81.689	98.1445	81.4257	98.1445	81.7491	98.1445	81.3205	98.1445	81.7918	98.1445	81.213	98.1445	81.816	98.1445	81.1075	98.1445	81.8214	98.1445	81.0081	98.1445	81.8085	98.1445	80.9185	98.1445	81.7785	98.1445	80.8421	98.1445	81.7335	98.1445	80.7814	98.1445	81.6759	98.1445	80.738	98.1445	81.6086	98.1445	80.7127	98.1445	81.5344	98.1445	80.7056	98.1445	81.4556	98.1445	80.7158	98.1445	81.3741	98.1445	80.7422	98.1445	81.2913	98.1445	80.7828	98.1445	81.2082	98.1445	80.8357	98.1445	81.126	98.1445	80.8987	98.1445	81.0459	98.1445	80.9695
101.074	82.037	101.074	81.9441	101.074	82.1175	101.074	81.8422	101.074	82.183	101.074	81.7357	101.074	82.2323	101.074	81.6295	101.074	82.2648	101.074	81.5289	101.074	82.2811	101.074	81.4386	101.074	82.2823	101.074	81.3627	101.074	82.2698	101.074	81.3044	101.074	82.2454	101.074	81.2655	101.074	82.2108	101.074	81.2467	101.074	82.1676	101.074	81.2474	101.074	82.1169	101.074	81.2661	101.074	82.0597	101.074	81.3006	101.074	81.9965	101.074	81.3484	101.074	81.9281	101.074	81.4069	101.074	81.8552	101.074	81.4736	101.074	81.779	101.074	81.5463	101.074	81.7009	101.074	81.6227
105.469	82.6641	105.469	82.5819	105.469	82.7356	105.469	82.4924	105.469	82.7941	105.469	82.3992	105.469	82.8379	105.469	82.3065	105.469	82.8662	105.469	82.2184	105.469	82.8792	105.469	82.1393	105.469	82.8779	105.469	82.0729	105.469	82.8643	105.469	82.0226	105.469	82.841	105.469	81.9904	105.469	82.8109	105.469	81.9778	105.469	82.7762	105.469	81.9846	105.469	82.7387	105.469	82.0097	105.469	82.6991	105.469	82.0507	105.469	82.657	105.469	82.1047	105.469	82.6115	105.469	82.1681	105.469	82.5613	105.469	82.2371	105.469	82.5057	105.469	82.3081	105.469	82.4444	105.469	82.378
108.398	83.2579	108.398	83.1738	108.398	83.3291	108.398	83.0801	108.398	83.3849	108.398	82.9808	108.398	83.4235	108.398	82.8801	108.398	83.4443	108.398	82.7823	108.398	83.4474	108.398	82.6918	108.398	83.4341	108.398	82.6125	108.398	83.4067	108.398	82.5476	108.398	83.3681	108.398	82.4997	108.398	83.3214	108.398	82.4706	108.398	83.2697	108.398	82.4606	108.398	83.2151	108.398	82.4695	108.398	83.1592	108.398	82.4957	108.398	83.1023	108.398	82.5368	108.398	83.044	108.398	82.5899	108.398	82.9837	108.398	82.6515	108.398	82.9206	108.398	82.7181	108.398	82.8547	108.398	82.7867
112.793	83.955	112.793	83.8808	112.793	84.0175	112.793	83.7985	112.793	84.0656	112.793	83.7123	112.793	84.0973	112.793	83.6263	112.793	84.112	112.793	83.5447	112.793	84.1101	112.793	83.4711	112.793	84.093	112.793	83.4084	112.793	84.063	112.793	83.3586	112.793	84.0232	112.793	83.3228	112.793	83.9767	112.793	83.3014	112.793	83.9262	112.793	83.2938	112.793	83.8738	112.793	83.299	112.793	83.821	112.793	83.3155	112.793	83.7683	112.793	83.3417	112.793	83.7158	112.793	83.3758	112.793	83.6635	112.793	83.4162	112.793	83.6114	112.793	83.4612	112.793	83.5599	112.793	83.5095
117.188	84.6019	117.188	84.5225	117.188	84.6694	117.188	84.4353	117.188	84.7222	117.188	84.3449	117.188	84.758	117.188	84.2561	117.188	84.7765	117.188	84.1738	117.188	84.7783	117.188	84.1024	117.188	84.7655	117.188	84.0453	117.188	84.7412	117.188	84.0052	117.188	84.7092	117.188	83.9833	117.188	84.6731	117.188	83.9797	117.188	84.6361	117.188	83.9931	117.188	84.5999	117.188	84.0212	117.188	84.5653	117.188	84.0612	117.188	84.5315	117.188	84.1097	117.188	84.4972	117.188	84.1634	117.188	84.4607	117.188	84.2193	117.188	84.4207	117.188	84.2746	117.188	84.3763	117.188	84.3274
120.117	85.0557	120.117	84.9737	120.117	85.1229	120.117	84.8811	120.117	85.1723	120.117	84.7823	120.117	85.202	120.117	84.6826	120.117	85.2115	120.117	84.5868	120.117	85.2014	120.117	84.4998	120.117	85.1739	120.117	84.4255	120.117	85.1324	120.117	84.3672	120.117	85.0811	120.117	84.3268	120.117	85.0244	120.117	84.3052	120.117	84.9664	120.117	84.3019	120.117	84.9103	120.117	84.3155	120.117	84.858	120.117	84.3434	120.117	84.8099	120.117	84.3825	120.117	84.7649	120.117	84.4292	120.117	84.7215	120.117	84.4802	120.117	84.6776	120.117	84.5323	120.117	84.6319	120.117	84.5834
124.512	85.7277	124.512	85.6477	124.512	85.7916	124.512	85.5554	124.512	85.8365	124.512	85.4553	124.512	85.8607	124.512	85.352	124.512	85.8636	124.512	85.2505	124.512	85.8459	124.512	85.1555	124.512	85.8097	124.512	85.0709	124.512	85.7582	124.512	84.9999	124.512	85.6953	124.512	84.9449	124.512	85.6255	124.512	84.9068	124.512	85.5529	124.512	84.8856	124.512	85.4807	124.512	84.8806	124.512	85.4113	124.512	84.8899	124.512	85.346	124.512	84.9114	124.512	85.285	124.512	84.9427	124.512	85.2278	124.512	84.9814	124.512	85.1737	124.512	85.0251	124.512	85.122	124.512	85.0723
128.906	86.0894	128.906	86.003	128.906	86.1568	128.906	85.9019	128.906	86.2029	128.906	85.7911	128.906	86.2268	128.906	85.6768	128.906	86.2291	128.906	85.5652	128.906	86.2119	128.906	85.4622	128.906	86.1783	128.906	85.3731	128.906	86.1318	128.906	85.3014	128.906	86.0761	128.906	85.2495	128.906	86.0147	128.906	85.218	128.906	85.9504	128.906	85.2061	128.906	85.8853	128.906	85.212	128.906	85.8207	128.906	85.2329	128.906	85.7573	128.906	85.266	128.906	85.6955	128.906	85.308	128.906	85.6354	128.906	85.3563	128.906	85.5768	128.906	85.4086	128.906	85.5195	128.906	85.4633
133.301	86.326	133.301	86.2435	133.301	86.3925	133.301	86.1489	133.301	86.4407	133.301	86.0472	133.301	86.47	133.301	85.9445	133.301	86.4812	133.301	85.847	133.301	86.4764	133.301	85.7606	133.301	86.4584	133.301	85.6901	133.301	86.4305	133.301	85.639	133.301	86.3962	133.301	85.6088	133.301	86.3582	133.301	85.5992	133.301	86.3184	133.301	85.6085	133.301	86.2776	133.301	85.6339	133.301	86.2359	133.301	85.6718	133.301	86.1928	133.301	85.7188	133.301	86.1478	133.301	85.7718	133.301	86.1002	133.301	85.8279	133.301	86.0499	133.301	85.8852	133.301	85.997	133.301	85.9419
139.16	86.7792	139.16	86.6885	139.16	86.8506	139.16	86.5826	139.16	86.9004	139.16	86.467	139.16	86.9278	139.16	86.3482	139.16	86.9336	139.16	86.2333	139.16	86.9204	139.16	86.1294	139.16	86.8916	139.16	86.0427	139.16	86.8519	139.16	85.978	139.16	86.8062	139.16	85.9384	139.16	86.759	139.16	85.9245	139.16	86.7137	139.16	85.9352	139.16	86.672	139.16	85.9677	139.16	86.6339	139.16	86.0176	139.16	86.5976	139.16	86.0802	139.16	86.5606	139.16	86.1502	139.16	86.5203	139.16	86.223	139.16	86.4744	139.16	86.2944	139.16	86.4215	139.16	86.3612
143.555	87.1798	143.555	87.0905	143.555	87.2522	143.555	86.9884	143.555	87.3046	143.555	86.8788	143.555	87.335	143.555	86.7671	143.555	87.3431	143.555	86.6591	143.555	87.3298	143.555	86.5602	143.555	87.2976	143.555	86.4751	143.555	87.2503	143.555	86.4073	143.555	87.1924	143.555	86.3591	143.555	87.1286	143.555	86.3313	143.555	87.0632	143.555	86.3235	143.555	86.9995	143.555	86.3339	143.555	86.9391	143.555	86.3602	143.555	86.8824	143.555	86.3992	143.555	86.8288	143.555	86.4476	143.555	86.7767	143.555	86.5017	143.555	86.7245	143.555	86.5586	143.555	86.671	143.555	86.6155
147.949	87.5601	147.949	87.474	147.949	87.6259	147.949	87.3721	147.949	87.6682	147.949	87.2596	147.949	87.6853	147.949	87.1426	147.949	87.6771	147.949	87.0271	147.949	87.6451	147.949	86.9189	147.949	87.5926	147.949	86.8232	147.949	87.5241	147.949	86.7439	147.949	87.4448	147.949	86.6834	147.949	87.3604	147.949	86.6426	147.949	87.2758	147.949	86.6208	147.949	87.195	147.949	86.6164	147.949	87.1203	147.949	86.6267	147.949	87.0532	147.949	86.649	147.949	86.9934	147.949	86.6802	147.949	86.94	147.949	86.7174	147.949	86.8913	147.949	86.7584	147.949	86.8454	147.949	86.8012
153.809	87.5773	153.809	87.4952	153.809	87.6307	153.809	87.3891	153.809	87.6527	153.809	87.266	153.809	87.6434	153.809	87.1339	153.809	87.6058	153.809	87.0016	153.809	87.5455	153.809	86.8774	153.809	87.4697	153.809	86.7689	153.809	87.3869	153.809	86.6819	153.809	87.305	153.809	86.6198	153.809	87.2302	153.809	86.5837	153.809	87.1663	153.809	86.5725	153.809	87.114	153.809	86.583	153.809	87.0719	153.809	86.6111	153.809	87.0367	153.809	86.6519	153.809	87.0048	153.809	86.7007	153.809	86.9727	153.809	86.7529	153.809	86.9379	153.809	86.805	153.809	86.8986	153.809	86.8541
159.668	87.4165	159.668	87.3358	159.668	87.4772	159.668	87.2392	159.668	87.5159	159.668	87.1329	159.668	87.5324	159.668	87.0239	159.668	87.5286	159.668	86.92	159.668	87.508	159.668	86.8284	159.668	87.4751	159.668	86.7551	159.668	87.4351	159.668	86.7045	159.668	87.3932	159.668	86.6787	159.668	87.3543	159.668	86.6776	159.668	87.3215	159.668	86.6993	159.668	87.2959	159.668	86.7402	159.668	87.2765	159.668	86.7957	159.668	87.2605	159.668	86.8606	159.668	87.2445	159.668	86.9296	159.668	87.2248	159.668	86.9979	159.668	87.1982	159.668	87.0613	159.668	87.1626	159.668	87.1168
165.527	87.6393	165.527	87.544	165.527	87.7172	165.527	87.4373	165.527	87.7734	165.527	87.326	165.527	87.8053	165.527	87.2176	165.527	87.8124	165.527	87.1189	165.527	87.796	165.527	87.0358	165.527	87.7591	165.527	86.9723	165.527	87.7066	165.527	86.9304	165.527	87.6442	165.527	86.9102	165.527	87.5779	165.527	86.91	165.527	87.5133	165.527	86.9269	165.527	87.455	165.527	86.9573	165.527	87.4055	165.527	86.9976	165.527	87.3657	165.527	87.0439	165.527	87.334	165.527	87.0927	165.527	87.3076	165.527	87.1406	165.527	87.2827	165.527	87.1847	165.527	87.2554	165.527	87.2231
171.387	87.6968	171.387	87.5901	171.387	87.781	171.387	87.4674	171.387	87.8383	171.387	87.3365	171.387	87.8665	171.387	87.2062	171.387	87.8656	171.387	87.0854	171.387	87.8379	171.387	86.9821	171.387	87.7881	171.387	86.9024	171.387	87.7225	171.387	86.8499	171.387	87.6481	171.387	86.8253	171.387	87.572	171.387	86.8267	171.387	87.5003	171.387	86.8503	171.387	87.437	171.387	86.8907	171.387	87.3842	171.387	86.9424	171.387	87.3422	171.387	86.9996	171.387	87.3092	171.387	87.0574	171.387	87.2823	171.387	87.1116	171.387	87.2577	171.387	87.1592	171.387	87.231	171.387	87.1989
177.246	87.775	177.246	87.6383	177.246	87.8825	177.246	87.4805	177.246	87.9552	177.246	87.3117	177.246	87.9902	177.246	87.1429	177.246	87.9879	177.246	86.9859	177.246	87.9512	177.246	86.8512	177.246	87.8861	177.246	86.747	177.246	87.8003	177.246	86.6785	177.246	87.7025	177.246	86.6466	177.246	87.6016	177.246	86.6486	177.246	87.505	177.246	86.6789	177.246	87.4187	177.246	86.7303	177.246	87.3463	177.246	86.7952	177.246	87.2888	177.246	86.8662	177.246	87.2449	177.246	86.9374	177.246	87.2105	177.246	87.0037	177.246	87.1802	177.246	87.0616	177.246	87.1482	177.246	87.1096
183.105	87.6863	183.105	87.5676	183.105	87.7736	183.105	87.4244	183.105	87.826	183.105	87.266	183.105	87.8435	183.105	87.1035	183.105	87.8292	183.105	86.949	183.105	87.7892	183.105	86.814	183.105	87.7309	183.105	86.7083	183.105	87.6619	183.105	86.6386	183.105	87.5883	183.105	86.6073	183.105	87.5144	183.105	86.6124	183.105	87.4427	183.105	86.6482	183.105	87.3745	183.105	86.7063	183.105	87.3117	183.105	86.7776	183.105	87.2565	183.105	86.8531	183.105	87.2106	183.105	86.9256	183.105	87.174	183.105	86.9897	183.105	87.1441	183.105	87.0424	183.105	87.1159	183.105	87.0836
188.965	87.5284	188.965	87.3969	188.965	87.6211	188.965	87.2335	188.965	87.6715	188.965	87.0477	188.965	87.6798	188.965	86.8519	188.965	87.6496	188.965	86.6602	188.965	87.5879	188.965	86.4872	188.965	87.5047	188.965	86.3468	188.965	87.4115	188.965	86.2497	188.965	87.3198	188.965	86.2022	188.965	87.2393	188.965	86.2049	188.965	87.1761	188.965	86.2526	188.965	87.1318	188.965	86.3358	188.965	87.1044	188.965	86.4425	188.965	87.0885	188.965	86.5604	188.965	87.0778	188.965	86.6781	188.965	87.065	188.965	86.7868	188.965	87.0436	188.965	86.8799	188.965	87.0078	188.965	86.9538
196.289	87.604	196.289	87.4661	196.289	87.7042	196.289	87.2981	196.289	87.7625	196.289	87.1097	196.289	87.7774	196.289	86.9128	196.289	87.7506	196.289	86.7201	196.289	87.687	196.289	86.5441	196.289	87.5935	196.289	86.3959	196.289	87.479	196.289	86.2838	196.289	87.3529	196.289	86.2124	196.289	87.2245	196.289	86.1821	196.289	87.1022	196.289	86.1896	196.289	86.9931	196.289	86.2285	196.289	86.9022	196.289	86.2906	196.289	86.8322	196.289	86.3668	196.289	86.7821	196.289	86.4481	196.289	86.747	196.289	86.526	196.289	86.7187	196.289	86.5939	196.289	86.6882	196.289	86.648
203.613	87.5283	203.613	87.3773	203.613	87.6329	203.613	87.1876	203.613	87.6866	203.613	86.9703	203.613	87.6888	203.613	86.7389	203.613	87.6425	203.613	86.5087	203.613	87.5547	203.613	86.2953	203.613	87.4352	203.613	86.1134	203.613	87.2959	203.613	85.9739	203.613	87.1488	203.613	85.8832	203.613	87.0044	203.613	85.8419	203.613	86.8711	203.613	85.8455	203.613	86.7544	203.613	85.8857	203.613	86.6573	203.613	85.9522	203.613	86.5804	203.613	86.0343	203.613	86.5219	203.613	86.1223	203.613	86.4767	203.613	86.2074	203.613	86.4377	203.613	86.2833	203.613	86.3965	203.613	86.3464
210.938	87.5214	210.938	87.3941	210.938	87.6054	210.938	87.2305	210.938	87.6426	210.938	87.0407	210.938	87.6331	210.938	86.837	210.938	87.5808	210.938	86.6333	210.938	87.4928	210.938	86.4439	210.938	87.3784	210.938	86.2812	210.938	87.2485	210.938	86.1548	210.938	87.1133	210.938	86.0694	210.938	86.9816	210.938	86.0245	210.938	86.86	210.938	86.0156	210.938	86.7524	210.938	86.0351	210.938	86.6607	210.938	86.0745	210.938	86.5853	210.938	86.1261	210.938	86.5247	210.938	86.1835	210.938	86.4754	210.938	86.2415	210.938	86.4326	210.938	86.2965	210.938	86.3911	210.938	86.3464
218.262	87.2565	218.262	87.1275	218.262	87.3451	218.262	86.9659	218.262	87.3894	218.262	86.7828	218.262	87.3891	218.262	86.5919	218.262	87.3484	218.262	86.409	218.262	87.2748	218.262	86.2496	218.262	87.1788	218.262	86.1276	218.262	87.0726	218.262	86.0527	218.262	86.9683	218.262	86.0285	218.262	86.8759	218.262	86.0517	218.262	86.8025	218.262	86.1133	218.262	86.7509	218.262	86.2007	218.262	86.7206	218.262	86.3007	218.262	86.7081	218.262	86.4016	218.262	86.7075	218.262	86.4947	218.262	86.7114	218.262	86.5738	218.262	86.7122	218.262	86.6355	218.262	86.7029	218.262	86.6783
225.586	87.1353	225.586	87.0023	225.586	87.2224	225.586	86.8315	225.586	87.2596	225.586	86.6343	225.586	87.2467	225.586	86.4251	225.586	87.1881	225.586	86.2205	225.586	87.0925	225.586	86.0383	225.586	86.9724	225.586	85.8948	225.586	86.8427	225.586	85.8028	225.586	86.7184	225.586	85.7686	225.586	86.6127	225.586	85.7911	225.586	86.5346	225.586	85.8616	225.586	86.4884	225.586	85.9668	225.586	86.4738	225.586	86.091	225.586	86.4855	225.586	86.2196	225.586	86.5145	225.586	86.3399	225.586	86.549	225.586	86.442	225.586	86.5761	225.586	86.519	225.586	86.5846	225.586	86.5667
232.91	87.0609	232.91	86.9124	232.91	87.1521	232.91	86.7156	232.91	87.1815	232.91	86.4832	232.91	87.1488	232.91	86.2314	232.91	87.0592	232.91	85.9796	232.91	86.9232	232.91	85.7493	232.91	86.7566	232.91	85.5615	232.91	86.5785	232.91	85.4339	232.91	86.4089	232.91	85.3765	232.91	86.2655	232.91	85.3896	232.91	86.1612	232.91	85.4639	232.91	86.1017	232.91	85.5826	232.91	86.0861	232.91	85.7261	232.91	86.1068	232.91	85.8753	232.91	86.1514	232.91	86.0139	232.91	86.204	232.91	86.1295	232.91	86.2484	232.91	86.2132	232.91	86.2704	232.91	86.2603
241.699	86.8389	241.699	86.6826	241.699	86.9425	241.699	86.4824	241.699	86.9893	241.699	86.2509	241.699	86.9794	241.699	86.0042	241.699	86.9172	241.699	85.7606	241.699	86.8107	241.699	85.5396	241.699	86.6709	241.699	85.3594	241.699	86.5097	241.699	85.2341	241.699	86.3394	241.699	85.1713	241.699	86.1718	241.699	85.1702	241.699	86.0182	241.699	85.2225	241.699	85.8896	241.699	85.3141	241.699	85.7959	241.699	85.428	241.699	85.7437	241.699	85.5473	241.699	85.7323	241.699	85.6569	241.699	85.7523	241.699	85.7446	241.699	85.7867	241.699	85.8017	241.699	85.8163	241.699	85.8246
250.488	86.8482	250.488	86.6641	250.488	86.969	250.488	86.4244	250.488	87.0214	250.488	86.1403	250.488	87.004	250.488	85.826	250.488	86.9199	250.488	85.4997	250.488	86.7776	250.488	85.1836	250.488	86.5913	250.488	84.9033	250.488	86.381	250.488	84.6849	250.488	86.1696	250.488	84.5498	250.488	85.9796	250.488	84.5088	250.488	85.8287	250.488	84.558	250.488	85.7262	250.488	84.6801	250.488	85.6717	250.488	84.8493	250.488	85.6565	250.488	85.0387	250.488	85.6656	250.488	85.2245	250.488	85.6816	250.488	85.3892	250.488	85.6872	250.488	85.5211	250.488	85.668	250.488	85.6143
259.277	86.7322	259.277	86.5486	259.277	86.856	259.277	86.3166	259.277	86.9132	259.277	86.0511	259.277	86.9023	259.277	85.7694	259.277	86.8271	259.277	85.49	259.277	86.6964	259.277	85.2312	259.277	86.5224	259.277	85.0102	259.277	86.3181	259.277	84.8415	259.277	86.097	259.277	84.7357	259.277	85.8729	259.277	84.698	259.277	85.6623	259.277	84.7265	259.277	85.4855	259.277	84.8121	259.277	85.3635	259.277	84.9391	259.277	85.3097	259.277	85.0874	259.277	85.3215	259.277	85.2357	259.277	85.3773	259.277	85.364	259.277	85.4449	259.277	85.4555	259.277	85.4927	259.277	85.4992
268.066	86.4599	268.066	86.2629	268.066	86.5921	268.066	86.012	268.066	86.6538	268.066	85.7224	268.066	86.6455	268.066	85.4134	268.066	86.5744	268.066	85.1065	268.066	86.4537	268.066	84.8242	268.066	86.3011	268.066	84.5863	268.066	86.1352	268.066	84.4075	268.066	85.9707	268.066	84.295	268.066	85.8157	268.066	84.2485	268.066	85.6721	268.066	84.262	268.066	85.539	268.066	84.326	268.066	85.4182	268.066	84.4288	268.066	85.3153	268.066	84.5571	268.066	85.2362	268.066	84.696	268.066	85.1806	268.066	84.83	268.066	85.1392	268.066	84.9456	268.066	85.0956	268.066	85.0341
276.855	86.2837	276.855	86.076	276.855	86.4151	276.855	85.8035	276.855	86.4654	276.855	85.4839	276.855	86.4363	276.855	85.1413	276.855	86.3367	276.855	84.8052	276.855	86.1823	276.855	84.5083	276.855	85.9944	276.855	84.2808	276.855	85.7959	276.855	84.1435	276.855	85.6069	276.855	84.1013	276.855	85.4409	276.855	84.1415	276.855	85.3037	276.855	84.2398	276.855	85.1974	276.855	84.3693	276.855	85.1233	276.855	84.5093	276.855	85.0826	276.855	84.6472	276.855	85.0727	276.855	84.7769	276.855	85.0829	276.855	84.8931	276.855	85.0953	276.855	84.989	276.855	85.0909	276.855	85.0565
287.109	86.1443	287.109	85.9789	287.109	86.2284	287.109	85.7426	287.109	86.2279	287.109	85.4511	287.109	86.1482	287.109	85.1241	287.109	86.0039	287.109	84.785	287.109	85.8185	287.109	84.46	287.109	85.6203	287.109	84.1778	287.109	85.4369	287.109	83.9664	287.109	85.2874	287.109	83.8481	287.109	85.1775	287.109	83.8317	287.109	85.0988	287.109	83.9077	287.109	85.0364	287.109	84.0505	287.109	84.9784	287.109	84.2262	287.109	84.9229	287.109	84.4027	287.109	84.8762	287.109	84.5566	287.109	84.8454	287.109	84.675	287.109	84.8297	287.109	84.7545	287.109	84.8194	287.109	84.7992
297.363	86.2041	297.363	85.9993	297.363	86.3155	297.363	85.7081	297.363	86.3303	297.363	85.3434	297.363	86.2481	297.363	84.926	297.363	86.072	297.363	84.4872	297.363	85.8106	297.363	84.0676	297.363	85.4828	297.363	83.7136	297.363	85.1249	297.363	83.4664	297.363	84.7942	297.363	83.3511	297.363	84.5605	297.363	83.3678	297.363	84.4782	297.363	83.4945	297.363	84.5521	297.363	83.6973	297.363	84.7324	297.363	83.9427	297.363	84.9432	297.363	84.2034	297.363	85.1192	297.363	84.4598	297.363	85.2234	297.363	84.6978	297.363	85.2453	297.363	84.906	297.363	85.1914	297.363	85.0742
307.617	86.1043	307.617	85.8979	307.617	86.2361	307.617	85.6257	307.617	86.2877	307.617	85.2995	307.617	86.2576	307.617	84.9344	307.617	86.1489	307.617	84.5508	307.617	85.9691	307.617	84.1749	307.617	85.7286	307.617	83.8399	307.617	85.4389	307.617	83.5826	307.617	85.1122	307.617	83.4349	307.617	84.7668	307.617	83.4117	307.617	84.435	307.617	83.5031	307.617	84.1674	307.617	83.6775	307.617	84.0203	307.617	83.8952	307.617	84.0229	307.617	84.1206	307.617	84.1517	307.617	84.3275	307.617	84.3402	307.617	84.4969	307.617	84.5159	307.617	84.6133	307.617	84.6297	307.617	84.6616
319.336	85.9668	319.336	85.7567	319.336	86.0842	319.336	85.4641	319.336	86.1049	319.336	85.1041	319.336	86.0304	319.336	84.6965	319.336	85.8688	319.336	84.2655	319.336	85.635	319.336	83.8392	319.336	85.3499	319.336	83.4504	319.336	85.0381	319.336	83.1362	319.336	84.7249	319.336	82.9328	319.336	84.4338	319.336	82.8658	319.336	84.1878	319.336	82.9375	319.336	84.0113	319.336	83.1235	319.336	83.9272	319.336	83.3807	319.336	83.9442	319.336	83.6622	319.336	84.0444	319.336	83.9284	319.336	84.1847	319.336	84.1503	319.336	84.3135	319.336	84.3083	319.336	84.3895	319.336	84.3898
329.59	85.4521	329.59	85.2532	329.59	85.5548	329.59	84.972	329.59	85.554	329.59	84.6276	329.59	85.4518	329.59	84.2421	329.59	85.2619	329.59	83.8389	329.59	85.0098	329.59	83.4419	329.59	84.7291	329.59	83.076	329.59	84.4532	329.59	82.768	329.59	84.2044	329.59	82.5464	329.59	83.9892	329.59	82.4374	329.59	83.8043	329.59	82.4565	329.59	83.6518	329.59	82.5998	329.59	83.5492	329.59	82.8414	329.59	83.5233	329.59	83.1386	329.59	83.5862	329.59	83.442	329.59	83.7162	329.59	83.7055	329.59	83.8613	329.59	83.8923	329.59	83.9633	329.59	83.9798
341.309	85.6727	341.309	85.445	341.309	85.7943	341.309	85.1244	341.309	85.8037	341.309	84.7318	341.309	85.7037	341.309	84.2955	341.309	85.5061	341.309	83.8502	341.309	85.2329	341.309	83.4348	341.309	84.9146	341.309	83.0865	341.309	84.5875	341.309	82.8339	341.309	84.2863	341.309	82.6906	341.309	84.0363	341.309	82.6542	341.309	83.8481	341.309	82.7107	341.309	83.7214	341.309	82.8413	341.309	83.6544	341.309	83.0272	341.309	83.6482	341.309	83.2485	341.309	83.7004	341.309	83.4807	341.309	83.7931	341.309	83.6941	341.309	83.8914	341.309	83.8575	341.309	83.9535	341.309	83.9466
353.027	85.6205	353.027	85.3957	353.027	85.7274	353.027	85.0674	353.027	85.7091	353.027	84.6557	353.027	85.5674	353.027	84.1863	353.027	85.3146	353.027	83.6899	353.027	84.9748	353.027	83.2014	353.027	84.5809	353.027	82.7578	353.027	84.1705	353.027	82.3949	353.027	83.7793	353.027	82.1414	353.027	83.4365	353.027	82.0114	353.027	83.1636	353.027	82.0009	353.027	82.9766	353.027	82.0906	353.027	82.8874	353.027	82.2542	353.027	82.896	353.027	82.4642	353.027	82.9814	353.027	82.6933	353.027	83.1007	353.027	82.9132	353.027	83.2031	353.027	83.0945	353.027	83.2471	353.027	83.2111
366.211	85.5518	366.211	85.3113	366.211	85.6805	366.211	84.9707	366.211	85.6894	366.211	84.5454	366.211	85.5748	366.211	84.0558	366.211	85.3392	366.211	83.5294	366.211	84.9936	366.211	83.0044	366.211	84.5616	366.211	82.5325	366.211	84.0827	366.211	82.1743	366.211	83.6118	366.211	81.9814	366.211	83.2114	366.211	81.971	366.211	82.9348	366.211	82.1135	366.211	82.8088	366.211	82.349	366.211	82.826	366.211	82.6167	366.211	82.9505	366.211	82.875	366.211	83.1309	366.211	83.1032	366.211	83.3132	366.211	83.2921	366.211	83.4531	366.211	83.4332	366.211	83.5231	366.211	83.5145
379.395	85.6489	379.395	85.3793	379.395	85.801	379.395	85.0085	379.395	85.8245	379.395	84.557	379.395	85.7149	379.395	84.0487	379.395	85.4751	379.395	83.5111	379.395	85.1164	379.395	82.9769	379.395	84.6584	379.395	82.4873	379.395	84.1282	379.395	82.0931	379.395	83.5608	379.395	81.8467	379.395	83.0024	379.395	81.7831	379.395	82.5169	379.395	81.9001	379.395	82.1867	379.395	82.1564	379.395	82.0877	379.395	82.4906	379.395	82.2377	379.395	82.8426	379.395	82.5681	379.395	83.1647	379.395	82.9597	379.395	83.4209	379.395	83.3038	379.395	83.5828	379.395	83.5342	379.395	83.6263
392.578	85.5441	392.578	85.2451	392.578	85.7161	392.578	84.8389	392.578	85.7491	392.578	84.3522	392.578	85.6393	392.578	83.8168	392.578	85.3935	392.578	83.2641	392.578	85.0323	392.578	82.722	392.578	84.5906	392.578	82.2148	392.578	84.1103	392.578	81.7695	392.578	83.6268	392.578	81.4219	392.578	83.1575	392.578	81.2145	392.578	82.7074	392.578	81.1809	392.578	82.2949	392.578	81.3246	392.578	81.9772	392.578	81.6105	392.578	81.8391	392.578	81.975	392.578	81.928	392.578	82.3452	392.578	82.1945	392.578	82.6543	392.578	82.5164	392.578	82.8485	392.578	82.7734	392.578	82.8922
405.762	85.7022	405.762	85.4309	405.762	85.8416	405.762	85.0478	405.762	85.8323	405.762	84.5729	405.762	85.6685	405.762	84.0248	405.762	85.3618	405.762	83.4229	405.762	84.9447	405.762	82.7929	405.762	84.4655	405.762	82.1746	405.762	83.9742	405.762	81.6258	405.762	83.5098	405.762	81.2143	405.762	83.0951	405.762	80.9929	405.762	82.7422	405.762	80.9733	405.762	82.4619	405.762	81.1213	405.762	82.2708	405.762	81.3783	405.762	82.187	405.762	81.6865	405.762	82.2142	405.762	81.9978	405.762	82.3249	405.762	82.2715	405.762	82.462	405.762	82.4713	405.762	82.5602	405.762	82.5702
420.41	85.9881	420.41	85.7547	420.41	86.0915	420.41	85.4042	420.41	86.0608	420.41	84.9564	420.41	85.9022	420.41	84.4363	420.41	85.6315	420.41	83.8727	420.41	85.2703	420.41	83.297	420.41	84.8396	420.41	82.7429	420.41	84.3559	420.41	82.2468	420.41	83.8326	420.41	81.8456	420.41	83.2844	420.41	81.5684	420.41	82.7368	420.41	81.4263	420.41	82.2395	420.41	81.4099	420.41	81.8727	420.41	81.4975	420.41	81.7166	420.41	81.6634	420.41	81.7853	420.41	81.878	420.41	81.9971	420.41	82.103	420.41	82.2261	420.41	82.2907	420.41	82.3725	420.41	82.3924
435.059	85.6931	435.059	85.423	435.059	85.8377	435.059	85.0381	435.059	85.8559	435.059	84.5587	435.059	85.7545	435.059	84.0137	435.059	85.5446	435.059	83.4373	435.059	85.2401	435.059	82.8694	435.059	84.8575	435.059	82.357	435.059	84.4148	435.059	81.9538	435.059	83.9283	435.059	81.7082	435.059	83.4123	435.059	81.6428	435.059	82.8896	435.059	81.74	435.059	82.4145	435.059	81.9521	435.059	82.0819	435.059	82.2235	435.059	81.9866	435.059	82.5079	435.059	82.1424	435.059	82.7703	435.059	82.4532	435.059	82.9815	435.059	82.7809	435.059	83.1123	435.059	83.0227	435.059	83.1334
451.172	86.2927	451.172	86.0114	451.172	86.4318	451.172	85.6021	451.172	86.4112	451.172	85.0768	451.172	86.2143	451.172	84.446	451.172	85.8342	451.172	83.7206	451.172	85.2862	451.172	82.9166	451.172	84.6179	451.172	82.0645	451.172	83.9059	451.172	81.2234	451.172	83.2358	451.172	80.4956	451.172	82.6677	451.172	80.0146	451.172	82.2122	451.172	79.8864	451.172	81.8431	451.172	80.1117	451.172	81.5473	451.172	80.5792	451.172	81.3651	451.172	81.1379	451.172	81.3657	451.172	81.6608	451.172	81.5634	451.172	82.0619	451.172	81.8734	451.172	82.2891	451.172	82.1617	451.172	82.3191
465.82	85.9197	465.82	85.6716	465.82	86.0165	465.82	85.2837	465.82	85.9532	465.82	84.7697	465.82	85.7281	465.82	84.1468	465.82	85.3529	465.82	83.438	465.82	84.8584	465.82	82.6766	465.82	84.2931	465.82	81.9132	465.82	83.7131	465.82	81.2229	465.82	83.1644	465.82	80.7026	465.82	82.6711	465.82	80.4418	465.82	82.2431	465.82	80.4751	465.82	81.9032	465.82	80.7617	465.82	81.7045	465.82	81.2115	465.82	81.7035	465.82	81.7248	465.82	81.9019	465.82	82.2132	465.82	82.2248	465.82	82.6054	465.82	82.5611	465.82	82.8502	465.82	82.8137	465.82	82.9198
483.398	86.2014	483.398	85.9456	483.398	86.3073	483.398	85.5487	483.398	86.256	483.398	85.0219	483.398	86.0451	483.398	84.3804	483.398	85.6853	483.398	83.643	483.398	85.2092	483.398	82.8318	483.398	84.6676	483.398	81.9774	483.398	84.1128	483.398	81.1353	483.398	83.5786	483.398	80.4079	483.398	83.0717	483.398	79.9389	483.398	82.582	483.398	79.8425	483.398	82.1152	483.398	80.1113	483.398	81.7391	483.398	80.6233	483.398	81.5799	483.398	81.2335	483.398	81.7162	483.398	81.8299	483.398	82.0741	483.398	82.3332	483.398	82.4737	483.398	82.682	483.398	82.7542	483.398	82.83
499.512	86.206	499.512	85.8898	499.512	86.3746	499.512	85.444	499.512	86.386	499.512	84.8956	499.512	86.2386	499.512	84.276	499.512	85.94	499.512	83.6133	499.512	85.5064	499.512	82.9242	499.512	84.9613	499.512	82.2156	499.512	84.3335	499.512	81.5	499.512	83.6565	499.512	80.8204	499.512	82.9687	499.512	80.2661	499.512	82.3115	499.512	79.954	499.512	81.739	499.512	79.9646	499.512	81.3372	499.512	80.2833	499.512	81.209	499.512	80.8075	499.512	81.3902	499.512	81.4033	499.512	81.78	499.512	81.9479	499.512	82.1943	499.512	82.3453	499.512	82.4732	499.512	82.5301
517.09	86.335	517.09	86.1026	517.09	86.41	517.09	85.7207	517.09	86.3273	517.09	85.2067	517.09	86.0929	517.09	84.5901	517.09	85.7228	517.09	83.9088	517.09	85.2439	517.09	83.199	517.09	84.6909	517.09	82.4856	517.09	84.0974	517.09	81.7836	517.09	83.4881	517.09	81.1139	517.09	82.8729	517.09	80.5238	517.09	82.2484	517.09	80.0946	517.09	81.6213	517.09	79.925	517.09	81.0605	517.09	80.0843	517.09	80.735	517.09	80.5514	517.09	80.823	517.09	81.1974	517.09	81.2956	517.09	81.8392	517.09	81.8934	517.09	82.3093	517.09	82.3432	517.09	82.4935
536.133	85.9259	536.133	85.593	536.133	86.0486	536.133	85.0818	536.133	85.9461	536.133	84.4408	536.133	85.6231	536.133	83.7309	536.133	85.1105	536.133	83.013	536.133	84.4704	536.133	82.3284	536.133	83.7927	536.133	81.6904	536.133	83.1796	536.133	81.1021	536.133	82.7138	536.133	80.5916	536.133	82.413	536.133	80.2299	536.133	82.2091	536.133	80.0976	536.133	82	536.133	80.2195	536.133	81.7395	536.133	80.5409	536.133	81.4929	536.133	80.9742	536.133	81.4043	536.133	81.4401	536.133	81.5614	536.133	81.8659	536.133	81.8797	536.133	82.1721	536.133	82.1703	536.133	82.2844
555.176	86.0687	555.176	85.6147	555.176	86.3261	555.176	85.0082	555.176	86.3624	555.176	84.3125	555.176	86.172	555.176	83.6018	555.176	85.7683	555.176	82.9391	555.176	85.1806	555.176	82.35	555.176	84.4434	555.176	81.8139	555.176	83.5868	555.176	81.2883	555.176	82.6478	555.176	80.7541	555.176	81.7105	555.176	80.2594	555.176	80.9352	555.176	79.9262	555.176	80.5015	555.176	79.8869	555.176	80.4658	555.176	80.1754	555.176	80.7166	555.176	80.6918	555.176	81.0977	555.176	81.2767	555.176	81.506	555.176	81.7888	555.176	81.8791	555.176	82.1304	555.176	82.1514	555.176	82.2511
574.219	86.4813	574.219	85.9873	574.219	86.7462	574.219	85.2789	574.219	86.7781	574.219	84.3922	574.219	86.5787	574.219	83.3969	574.219	86.16	574.219	82.4038	574.219	85.5596	574.219	81.5484	574.219	84.8492	574.219	80.9272	574.219	84.1164	574.219	80.5288	574.219	83.4128	574.219	80.2515	574.219	82.7049	574.219	79.9931	574.219	81.8926	574.219	79.7294	574.219	80.9124	574.219	79.5613	574.219	79.8911	574.219	79.6788	574.219	79.2369	574.219	80.1728	574.219	79.35	574.219	80.8892	574.219	80.0923	574.219	81.5567	574.219	80.9818	574.219	81.9669	574.219	81.6724	574.219	82.0145
594.727	86.9866	594.727	86.5661	594.727	87.1031	594.727	85.8466	594.727	86.9326	594.727	84.8519	594.727	86.5169	594.727	83.6275	594.727	85.9143	594.727	82.2487	594.727	85.1807	594.727	80.8283	594.727	84.3736	594.727	79.5127	594.727	83.5972	594.727	78.4598	594.727	83.0072	594.727	77.802	594.727	82.6769	594.727	77.6032	594.727	82.4692	594.727	77.8112	594.727	82.129	594.727	78.2667	594.727	81.4817	594.727	78.7984	594.727	80.5684	594.727	79.3052	594.727	79.7031	594.727	79.7453	594.727	79.3098	594.727	80.0787	594.727	79.4726	594.727	80.2405	594.727	79.8668	594.727	80.1692
615.234	86.6538	615.234	86.351	615.234	86.7089	615.234	85.7907	615.234	86.5411	615.234	84.9885	615.234	86.1673	615.234	83.9816	615.234	85.5816	615.234	82.8232	615.234	84.7752	615.234	81.5921	615.234	83.786	615.234	80.4103	615.234	82.7297	615.234	79.4268	615.234	81.7685	615.234	78.7383	615.234	81.0481	615.234	78.3208	615.234	80.6546	615.234	78.0733	615.234	80.5819	615.234	77.9283	615.234	80.7345	615.234	77.9161	615.234	80.9733	615.234	78.1287	615.234	81.1602	615.234	78.5996	615.234	81.1991	615.234	79.2284	615.234	81.064	615.234	79.8558	615.234	80.7826	615.234	80.3805
637.207	86.0284	637.207	85.7407	637.207	86.1158	637.207	85.241	637.207	86.0195	637.207	84.5294	637.207	85.7507	637.207	83.6257	637.207	85.3101	637.207	82.5858	637.207	84.7021	637.207	81.5147	637.207	83.9603	637.207	80.548	637.207	83.1458	637.207	79.7806	637.207	82.3059	637.207	79.1978	637.207	81.449	637.207	78.7105	637.207	80.5824	637.207	78.2861	637.207	79.7774	637.207	78.0351	637.207	79.2076	637.207	78.1316	637.207	79.0875	637.207	78.6151	637.207	79.4638	637.207	79.331	637.207	80.1049	637.207	80.067	637.207	80.6907	637.207	80.6581	637.207	81.0116	637.207	80.9952
659.18	85.2898	659.18	85.0455	659.18	85.3352	659.18	84.5972	659.18	85.1795	659.18	83.9416	659.18	84.8167	659.18	83.0904	659.18	84.2554	659.18	82.0895	659.18	83.547	659.18	81.0338	659.18	82.7907	659.18	80.053	659.18	82.097	659.18	79.2558	659.18	81.5445	659.18	78.6793	659.18	81.158	659.18	78.3062	659.18	80.882	659.18	78.1212	659.18	80.6029	659.18	78.1306	659.18	80.2679	659.18	78.3507	659.18	79.9779	659.18	78.7957	659.18	79.9259	659.18	79.4342	659.18	80.1871	659.18	80.1367	659.18	80.608	659.18	80.7103	659.18	80.94	659.18	80.9966
682.617	85.4207	682.617	85.0709	682.617	85.478	682.617	84.4567	682.617	85.2312	682.617	83.6095	682.617	84.7049	682.617	82.553	682.617	83.9817	682.617	81.3032	682.617	83.1893	682.617	79.9007	682.617	82.4335	682.617	78.4852	682.617	81.7823	682.617	77.3714	682.617	81.3396	682.617	76.9313	682.617	81.1537	682.617	77.1822	682.617	81.0596	682.617	77.7309	682.617	80.8615	682.617	78.2276	682.617	80.5788	682.617	78.5871	682.617	80.425	682.617	78.9169	682.617	80.5529	682.617	79.3584	682.617	80.844	682.617	79.9264	682.617	81.0663	682.617	80.4887	682.617	81.0945	682.617	80.8998
707.52	85.5636	707.52	85.3487	707.52	85.5224	707.52	84.8662	707.52	85.2474	707.52	84.1322	707.52	84.7701	707.52	83.2208	707.52	84.1205	707.52	82.2652	707.52	83.2962	707.52	81.3834	707.52	82.2519	707.52	80.5632	707.52	80.9618	707.52	79.6456	707.52	79.5331	707.52	78.4604	707.52	78.3016	707.52	77.0702	707.52	77.707	707.52	76.0427	707.52	77.8232	707.52	76.1066	707.52	78.2918	707.52	77.0597	707.52	78.8576	707.52	78.2183	707.52	79.5399	707.52	79.2793	707.52	80.3395	707.52	80.1949	707.52	81.0485	707.52	80.9242	707.52	81.4249	707.52	81.3699
732.422	86.3881	732.422	86.3401	732.422	86.2134	732.422	86.019	732.422	85.8899	732.422	85.4145	732.422	85.4868	732.422	84.5793	732.422	85.0139	732.422	83.6271	732.422	84.396	732.422	82.6523	732.422	83.5469	732.422	81.649	732.422	82.4761	732.422	80.5668	732.422	81.2988	732.422	79.3891	732.422	80.1693	732.422	78.1141	732.422	79.3215	732.422	76.8398	732.422	79.0633	732.422	76.0053	732.422	79.4005	732.422	76.2606	732.422	79.9645	732.422	77.5788	732.422	80.4829	732.422	79.2171	732.422	80.9501	732.422	80.6052	732.422	81.4266	732.422	81.5174	732.422	81.8164	732.422	81.9025
757.324	87.57	757.324	87.1688	757.324	87.7366	757.324	86.5769	757.324	87.6631	757.324	85.874	757.324	87.3679	757.324	85.1395	757.324	86.8671	757.324	84.3868	757.324	86.161	757.324	83.5545	757.324	85.2607	757.324	82.5977	757.324	84.224	757.324	81.5638	757.324	83.1306	757.324	80.5568	757.324	82.0124	757.324	79.6245	757.324	80.8115	757.324	78.7149	757.324	79.5558	757.324	77.8016	757.324	78.8554	757.324	77.1495	757.324	79.5434	757.324	77.3999	757.324	81.0621	757.324	78.7467	757.324	82.3703	757.324	80.4648	757.324	83.0855	757.324	81.8933	757.324	83.2111	757.324	82.8119
785.156	87.7893	785.156	87.5715	785.156	87.7707	785.156	87.1604	785.156	87.5269	785.156	86.6579	785.156	87.098	785.156	86.1818	785.156	86.5231	785.156	85.7653	785.156	85.8119	785.156	85.2889	785.156	84.9199	785.156	84.5568	785.156	83.7513	785.156	83.452	785.156	82.2529	785.156	82.0444	785.156	80.6322	785.156	80.5975	785.156	79.4412	785.156	79.4392	785.156	78.9655	785.156	78.7316	785.156	78.6832	785.156	78.3792	785.156	78.0493	785.156	78.2569	785.156	77.5694	785.156	78.478	785.156	78.4169	785.156	79.1996	785.156	79.8957	785.156	80.1536	785.156	80.7858	785.156	80.8136
811.523	87.8717	811.523	87.6364	811.523	87.8987	811.523	87.2572	811.523	87.7066	811.523	86.8118	811.523	87.345	811.523	86.3553	811.523	86.8385	811.523	85.8873	811.523	86.1041	811.523	85.3362	811.523	85.061	811.523	84.5917	811.523	83.8128	811.523	83.5665	811.523	82.5713	811.523	82.2507	811.523	81.3457	811.523	80.7483	811.523	80.0732	811.523	79.3017	811.523	79.1633	811.523	78.2794	811.523	79.0146	811.523	77.9809	811.523	79.1865	811.523	78.3437	811.523	79.3138	811.523	79.0872	811.523	79.6305	811.523	79.9753	811.523	80.3193	811.523	80.7592	811.523	80.9778	811.523	81.1545
840.82	87.4756	840.82	87.1982	840.82	87.6087	840.82	86.8246	840.82	87.5803	840.82	86.4378	840.82	87.3542	840.82	86.0865	840.82	86.8608	840.82	85.7037	840.82	86.0703	840.82	85.1411	840.82	85.0826	840.82	84.3127	840.82	84.0723	840.82	83.2845	840.82	83.1154	840.82	82.2231	840.82	82.1287	840.82	81.2763	840.82	80.9405	840.82	80.5147	840.82	79.4348	840.82	79.9594	840.82	77.8612	840.82	79.6157	840.82	77.2467	840.82	79.4564	840.82	78.1583	840.82	79.48	840.82	79.4867	840.82	79.7758	840.82	80.4331	840.82	80.3101	840.82	80.8566	840.82	80.7739
870.117	87.6959	870.117	87.4046	870.117	87.6536	870.117	86.8612	870.117	87.322	870.117	86.2563	870.117	86.8309	870.117	85.7653	870.117	86.2954	870.117	85.3644	870.117	85.683	870.117	84.8317	870.117	84.8172	870.117	83.9728	870.117	83.5686	870.117	82.8121	870.117	82.0337	870.117	81.595	870.117	80.5675	870.117	80.5794	870.117	79.6169	870.117	79.7908	870.117	79.3034	870.117	79.1581	870.117	79.2729	870.117	78.8785	870.117	79.1421	870.117	79.2662	870.117	78.9713	870.117	80.1946	870.117	79.4006	870.117	81.213	870.117	80.59	870.117	81.9543	870.117	81.7043	870.117	82.1735
900.879	88.1995	900.879	87.8387	900.879	88.1798	900.879	87.1744	900.879	87.8613	900.879	86.4304	900.879	87.3584	900.879	85.785	900.879	86.677	900.879	85.1819	900.879	85.7273	900.879	84.404	900.879	84.5143	900.879	83.282	900.879	83.2478	900.879	81.8527	900.879	82.0784	900.879	80.4349	900.879	80.8342	900.879	79.47	900.879	79.3402	900.879	79.1676	900.879	77.8175	900.879	79.3075	900.879	76.9256	900.879	79.3859	900.879	77.168	900.879	79.1925	900.879	78.2548	900.879	79.1607	900.879	79.659	900.879	79.8671	900.879	80.9636	900.879	80.9998	900.879	81.759	900.879	81.7694
933.105	88.0834	933.105	87.7498	933.105	88.0637	933.105	87.224	933.105	87.6208	933.105	86.6614	933.105	86.8242	933.105	86.06	933.105	85.8883	933.105	85.2293	933.105	85.0228	933.105	84.0046	933.105	84.1935	933.105	82.5219	933.105	83.2076	933.105	81.2442	933.105	82.0855	933.105	80.5017	933.105	81.1542	933.105	80.091	933.105	80.5709	933.105	79.6822	933.105	80.0717	933.105	79.288	933.105	79.547	933.105	79.0762	933.105	79.2244	933.105	79.0746	933.105	79.2187	933.105	79.4376	933.105	79.5668	933.105	80.439	933.105	80.5394	933.105	81.6295	933.105	81.7087	933.105	82.1757
965.332	88.4711	965.332	88.2097	965.332	88.2529	965.332	87.6301	965.332	87.5709	965.332	86.93	965.332	86.6562	965.332	86.1624	965.332	85.77	965.332	85.1773	965.332	84.866	965.332	83.7855	965.332	83.6653	965.332	82.0878	965.332	82.1102	965.332	80.6524	965.332	80.4685	965.332	79.9034	965.332	78.9281	965.332	79.3891	965.332	77.678	965.332	78.6438	965.332	76.7294	965.332	78.3615	965.332	75.8992	965.332	79.1172	965.332	75.8998	965.332	79.9036	965.332	77.3814	965.332	80.0875	965.332	79.2511	965.332	80.0147	965.332	80.6183	965.332	80.3869	965.332	81.2466	965.332	81.059
1,000.49	88.2976	1,000.49	88.1714	1,000.49	88.0979	1,000.49	87.8428	1,000.49	87.5506	1,000.49	87.3933	1,000.49	86.7523	1,000.49	86.7788	1,000.49	85.7587	1,000.49	85.9082	1,000.49	84.5483	1,000.49	84.7601	1,000.49	83.2732	1,000.49	83.4819	1,000.49	82.1859	1,000.49	82.3619	1,000.49	81.0407	1,000.49	81.4499	1,000.49	79.2711	1,000.49	80.3656	1,000.49	77.3357	1,000.49	78.7871	1,000.49	77.059	1,000.49	77.2158	1,000.49	78.0813	1,000.49	77.1421	1,000.49	78.7623	1,000.49	78.4852	1,000.49	78.7816	1,000.49	79.7282	1,000.49	78.8667	1,000.49	80.5774	1,000.49	79.9391	1,000.49	81.3621	1,000.49	81.2932	1,000.49	81.7975
1,035.64	88.5286	1,035.64	88.7199	1,035.64	88.0085	1,035.64	88.4661	1,035.64	87.3212	1,035.64	87.7254	1,035.64	86.5076	1,035.64	86.5203	1,035.64	85.415	1,035.64	84.9629	1,035.64	83.9864	1,035.64	83.2254	1,035.64	82.4252	1,035.64	81.4663	1,035.64	80.7584	1,035.64	79.8833	1,035.64	79.0122	1,035.64	78.8	1,035.64	77.6272	1,035.64	78.59	1,035.64	76.6568	1,035.64	78.99	1,035.64	75.4921	1,035.64	79.1479	1,035.64	73.9136	1,035.64	78.8631	1,035.64	73.5494	1,035.64	78.9931	1,035.64	75.4572	1,035.64	80.0247	1,035.64	77.5473	1,035.64	81.0016	1,035.64	78.9696	1,035.64	81.2688	1,035.64	80.0314	1,035.64	80.8657
1,072.27	87.8343	1,072.27	88.0197	1,072.27	87.4413	1,072.27	87.9202	1,072.27	86.8534	1,072.27	87.3751	1,072.27	86.0773	1,072.27	86.261	1,072.27	85.1379	1,072.27	84.7143	1,072.27	84.0422	1,072.27	83.1828	1,072.27	82.7993	1,072.27	82.0684	1,072.27	81.6209	1,072.27	81.2618	1,072.27	80.7953	1,072.27	80.4371	1,072.27	79.7738	1,072.27	79.3466	1,072.27	77.4552	1,072.27	78.0409	1,072.27	74.2885	1,072.27	77.01	1,072.27	74.6164	1,072.27	77.0529	1,072.27	76.5139	1,072.27	78.6135	1,072.27	76.7039	1,072.27	80.1336	1,072.27	75.9509	1,072.27	80.9283	1,072.27	77.6981	1,072.27	81.2884	1,072.27	80.1404	1,072.27	81.2172
1,108.89	88.2613	1,108.89	88.3786	1,108.89	87.7283	1,108.89	88.1489	1,108.89	86.7275	1,108.89	87.5087	1,108.89	85.3236	1,108.89	86.2809	1,108.89	83.6994	1,108.89	84.45	1,108.89	82.162	1,108.89	82.4634	1,108.89	80.9526	1,108.89	81.0318	1,108.89	79.5914	1,108.89	80.2977	1,108.89	77.6512	1,108.89	79.7512	1,108.89	76.1305	1,108.89	79.1357	1,108.89	75.7038	1,108.89	78.4858	1,108.89	74.9389	1,108.89	77.7136	1,108.89	72.3567	1,108.89	77.2135	1,108.89	68.5155	1,108.89	77.717	1,108.89	72.5873	1,108.89	78.7573	1,108.89	76.5312	1,108.89	79.6458	1,108.89	78.3803	1,108.89	80.2271	1,108.89	79.5354	1,108.89	80.251
1,148.44	87.7629	1,148.44	87.9357	1,148.44	87.0748	1,148.44	87.6604	1,148.44	86.02	1,148.44	87.0602	1,148.44	84.7847	1,148.44	86.0691	1,148.44	83.3067	1,148.44	84.4358	1,148.44	81.6138	1,148.44	82.2141	1,148.44	80.0631	1,148.44	80.3728	1,148.44	78.7595	1,148.44	80.003	1,148.44	78.024	1,148.44	80.1285	1,148.44	77.7659	1,148.44	79.5145	1,148.44	76.2638	1,148.44	78.5894	1,148.44	73.2743	1,148.44	78.2205	1,148.44	73.2542	1,148.44	78.0881	1,148.44	74.5123	1,148.44	78.0689	1,148.44	74.046	1,148.44	78.9114	1,148.44	73.7782	1,148.44	79.7743	1,148.44	75.9689	1,148.44	79.7405	1,148.44	77.8403	1,148.44	78.9895
1,189.45	87.4726	1,189.45	87.8414	1,189.45	86.6148	1,189.45	87.6122	1,189.45	85.4738	1,189.45	86.7178	1,189.45	84.1034	1,189.45	85.1314	1,189.45	82.4094	1,189.45	83.2176	1,189.45	80.9916	1,189.45	81.9094	1,189.45	80.3454	1,189.45	81.6454	1,189.45	79.3168	1,189.45	81.4671	1,189.45	77.5281	1,189.45	80.7981	1,189.45	75.5564	1,189.45	80.1981	1,189.45	74.4709	1,189.45	79.999	1,189.45	75.0489	1,189.45	79.28	1,189.45	75.7474	1,189.45	76.9772	1,189.45	74.9019	1,189.45	74.1173	1,189.45	73.196	1,189.45	75.5566	1,189.45	72.8011	1,189.45	78.622	1,189.45	75.7691	1,189.45	80.221	1,189.45	78.9304	1,189.45	80.32
1,230.47	89.3572	1,230.47	89.699	1,230.47	88.3254	1,230.47	89.4189	1,230.47	86.6726	1,230.47	88.4832	1,230.47	84.5177	1,230.47	86.8131	1,230.47	81.9566	1,230.47	84.8534	1,230.47	80.0624	1,230.47	83.5338	1,230.47	79.8948	1,230.47	82.5553	1,230.47	80.0185	1,230.47	81.1082	1,230.47	79.762	1,230.47	79.9499	1,230.47	79.0681	1,230.47	80.1164	1,230.47	77.0423	1,230.47	81.0426	1,230.47	75.0643	1,230.47	81.2716	1,230.47	74.4502	1,230.47	79.8939	1,230.47	73.1857	1,230.47	77.9283	1,230.47	71.5768	1,230.47	79.2311	1,230.47	72.5524	1,230.47	81.2077	1,230.47	75.0547	1,230.47	81.5666	1,230.47	78.2533	1,230.47	80.5206
1,274.41	90.6106	1,274.41	90.7927	1,274.41	89.2289	1,274.41	90.1131	1,274.41	86.8861	1,274.41	88.9652	1,274.41	84.7403	1,274.41	87.7338	1,274.41	83.2597	1,274.41	86.7094	1,274.41	81.9677	1,274.41	85.742	1,274.41	81.0735	1,274.41	84.0885	1,274.41	79.8572	1,274.41	81.4572	1,274.41	77.345	1,274.41	79.3365	1,274.41	76.7548	1,274.41	79.4886	1,274.41	77.8917	1,274.41	80.8495	1,274.41	76.4612	1,274.41	81.796	1,274.41	75.4743	1,274.41	81.4915	1,274.41	77.8062	1,274.41	79.9366	1,274.41	76.8665	1,274.41	79.0985	1,274.41	70.7886	1,274.41	80.399	1,274.41	75.4685	1,274.41	81.4926	1,274.41	79.8711	1,274.41	81.4074
1,319.82	90.2584	1,319.82	90.4533	1,319.82	89.5323	1,319.82	90.3188	1,319.82	87.8431	1,319.82	89.6498	1,319.82	84.9351	1,319.82	88.1997	1,319.82	81.9041	1,319.82	86.4641	1,319.82	80.8013	1,319.82	85.1947	1,319.82	80.254	1,319.82	83.7113	1,319.82	79.0793	1,319.82	81.0782	1,319.82	78.0572	1,319.82	78.4587	1,319.82	77.7365	1,319.82	77.6873	1,319.82	77.1701	1,319.82	78.3248	1,319.82	76.2484	1,319.82	79.7796	1,319.82	76.858	1,319.82	80.695	1,319.82	77.291	1,319.82	79.6524	1,319.82	74.8743	1,319.82	78.2419	1,319.82	69.8965	1,319.82	79.9842	1,319.82	74.6618	1,319.82	81.8445	1,319.82	80.2769	1,319.82	82.2113
1,366.7	90.6964	1,366.7	91.2698	1,366.7	89.399	1,366.7	91.0833	1,366.7	87.2901	1,366.7	89.8578	1,366.7	84.7185	1,366.7	87.6417	1,366.7	82.5716	1,366.7	85.6603	1,366.7	81.4815	1,366.7	85.1278	1,366.7	81.1046	1,366.7	84.6067	1,366.7	79.6912	1,366.7	82.2612	1,366.7	77.275	1,366.7	78.3908	1,366.7	76.5004	1,366.7	75.9507	1,366.7	75.9203	1,366.7	76.2579	1,366.7	75.1097	1,366.7	77.9879	1,366.7	75.5904	1,366.7	79.7743	1,366.7	74.9042	1,366.7	80.1896	1,366.7	73.5309	1,366.7	79.187	1,366.7	76.5719	1,366.7	79.6946	1,366.7	75.2895	1,366.7	81.0659	1,366.7	74.2376	1,366.7	79.586
1,413.57	89.7507	1,413.57	90.517	1,413.57	89.0444	1,413.57	90.7879	1,413.57	87.5937	1,413.57	89.4952	1,413.57	84.5528	1,413.57	86.8098	1,413.57	81.1774	1,413.57	84.8194	1,413.57	79.4497	1,413.57	83.8178	1,413.57	79.666	1,413.57	82.4949	1,413.57	80.8652	1,413.57	79.2954	1,413.57	80.4422	1,413.57	75.7818	1,413.57	78.1783	1,413.57	73.28	1,413.57	76.4105	1,413.57	72.2297	1,413.57	76.2496	1,413.57	75.482	1,413.57	76.3989	1,413.57	80.1222	1,413.57	77.0092	1,413.57	81.1651	1,413.57	77.3096	1,413.57	78.7731	1,413.57	73.7109	1,413.57	77.9375	1,413.57	68.4947	1,413.57	78.5245	1,413.57	75.5092	1,413.57	77.9773
1,463.38	88.4695	1,463.38	89.5127	1,463.38	86.9373	1,463.38	89.6632	1,463.38	84.7659	1,463.38	88.5473	1,463.38	82.2118	1,463.38	86.741	1,463.38	80.4307	1,463.38	85.1266	1,463.38	79.9038	1,463.38	82.677	1,463.38	79.6332	1,463.38	79.8988	1,463.38	79.4199	1,463.38	79.0014	1,463.38	79.0304	1,463.38	80.1323	1,463.38	79.4113	1,463.38	78.3187	1,463.38	79.8972	1,463.38	73.5916	1,463.38	76.5695	1,463.38	77.5538	1,463.38	71.46	1,463.38	79.1171	1,463.38	75.3889	1,463.38	76.9833	1,463.38	77.1129	1,463.38	75.4688	1,463.38	77.1798	1,463.38	77.454	1,463.38	70.2466	1,463.38	79.4156	1,463.38	73.9584	1,463.38	79.2642
1,516.11	87.4764	1,516.11	88.807	1,516.11	85.718	1,516.11	89.135	1,516.11	83.8791	1,516.11	88.215	1,516.11	81.2851	1,516.11	86.6094	1,516.11	78.1608	1,516.11	85.0031	1,516.11	77.9868	1,516.11	83.2962	1,516.11	78.7362	1,516.11	80.4289	1,516.11	79.7768	1,516.11	76.9141	1,516.11	79.8783	1,516.11	76.8877	1,516.11	78.9197	1,516.11	78.3368	1,516.11	79.313	1,516.11	77.2383	1,516.11	78.3832	1,516.11	68.914	1,516.11	71.2896	1,516.11	74.0652	1,516.11	75.1528	1,516.11	77.8544	1,516.11	77.8001	1,516.11	75.334	1,516.11	75.3532	1,516.11	76.8068	1,516.11	73.9549	1,516.11	77.5123	1,516.11	73.462	1,516.11	74.6788
1,568.85	87.0644	1,568.85	87.5651	1,568.85	85.6629	1,568.85	87.4188	1,568.85	82.6059	1,568.85	86.7434	1,568.85	78.1746	1,568.85	85.9184	1,568.85	78.618	1,568.85	84.745	1,568.85	79.8193	1,568.85	82.2313	1,568.85	79.0566	1,568.85	79.3557	1,568.85	79.1926	1,568.85	79.1156	1,568.85	79.0373	1,568.85	80.0658	1,568.85	78.7099	1,568.85	80.9984	1,568.85	78.9334	1,568.85	81.1774	1,568.85	78.7119	1,568.85	76.3549	1,568.85	76.8111	1,568.85	70.9246	1,568.85	67.9711	1,568.85	72.9471	1,568.85	72.5044	1,568.85	73.7596	1,568.85	76.8571	1,568.85	75.2916	1,568.85	73.3774	1,568.85	77.4134	1,568.85	68.9154	1,568.85	75.2728
1,624.51	87.801	1,624.51	88.7062	1,624.51	85.9417	1,624.51	88.2642	1,624.51	83.4095	1,624.51	86.856	1,624.51	79.6561	1,624.51	85.7014	1,624.51	78.6889	1,624.51	84.637	1,624.51	79.9051	1,624.51	80.9028	1,624.51	80.5558	1,624.51	75.0693	1,624.51	80.0836	1,624.51	77.1133	1,624.51	76.8602	1,624.51	79.7745	1,624.51	76.0093	1,624.51	79.7231	1,624.51	77.7764	1,624.51	80.3325	1,624.51	78.4244	1,624.51	79.2389	1,624.51	72.7673	1,624.51	72.3184	1,624.51	65.8884	1,624.51	75.0302	1,624.51	71.7731	1,624.51	77.8353	1,624.51	65.6527	1,624.51	77.7048	1,624.51	73.4992	1,624.51	79.2404	1,624.51	76.3467	1,624.51	78.0976
1,681.64	88.3055	1,681.64	88.5328	1,681.64	86.5111	1,681.64	88.0266	1,681.64	82.4728	1,681.64	87.3495	1,681.64	79.1672	1,681.64	86.5672	1,681.64	80.5884	1,681.64	84.6286	1,681.64	80.2456	1,681.64	79.7939	1,681.64	79.9501	1,681.64	76.4207	1,681.64	79.2441	1,681.64	77.3775	1,681.64	77.3769	1,681.64	76.1929	1,681.64	76.6467	1,681.64	73.6297	1,681.64	77.6359	1,681.64	78.6985	1,681.64	78.8114	1,681.64	79.8699	1,681.64	77.6729	1,681.64	75.1558	1,681.64	78.5873	1,681.64	74.3721	1,681.64	75.7181	1,681.64	76.3585	1,681.64	64.0058	1,681.64	75.6515	1,681.64	69.6961	1,681.64	77.7483	1,681.64	72.6245	1,681.64	77.408
1,741.7	88.2998	1,741.7	88.6137	1,741.7	85.8578	1,741.7	88.124	1,741.7	79.9367	1,741.7	87.3827	1,741.7	79.3778	1,741.7	85.2255	1,741.7	79.1331	1,741.7	79.9175	1,741.7	75.8824	1,741.7	76.659	1,741.7	77.2297	1,741.7	78.6852	1,741.7	77.595	1,741.7	75.3712	1,741.7	80.0209	1,741.7	72.8462	1,741.7	80.7725	1,741.7	68.7536	1,741.7	78.8732	1,741.7	73.1652	1,741.7	76.7151	1,741.7	76.3908	1,741.7	68.862	1,741.7	75.5145	1,741.7	74.2834	1,741.7	74.2527	1,741.7	77.0497	1,741.7	76.8384	1,741.7	72.7326	1,741.7	73.2118	1,741.7	71.2037	1,741.7	70.9276	1,741.7	77.3686	1,741.7	76.7035
1,803.22	88.0396	1,803.22	89.2903	1,803.22	84.7685	1,803.22	88.7808	1,803.22	81.6395	1,803.22	87.0938	1,803.22	80.3415	1,803.22	85.1156	1,803.22	78.4981	1,803.22	82.7355	1,803.22	79.5192	1,803.22	81.2508	1,803.22	81.509	1,803.22	81.1229	1,803.22	81.8816	1,803.22	75.9412	1,803.22	81.3045	1,803.22	74.9191	1,803.22	79.0713	1,803.22	75.8357	1,803.22	76.9855	1,803.22	64.2516	1,803.22	79.0259	1,803.22	73.8917	1,803.22	78.5088	1,803.22	77.2104	1,803.22	72.8261	1,803.22	73.8672	1,803.22	68.7662	1,803.22	75.1691	1,803.22	71.579	1,803.22	75.2122	1,803.22	66.3278	1,803.22	75.7661	1,803.22	73.9453	1,803.22	77.5768
1,866.21	87.5361	1,866.21	88.5362	1,866.21	85.2782	1,866.21	88.9513	1,866.21	80.9008	1,866.21	88.0792	1,866.21	78.726	1,866.21	84.7205	1,866.21	78.1801	1,866.21	78.0158	1,866.21	74.632	1,866.21	76.3926	1,866.21	75.9601	1,866.21	80.6371	1,866.21	79.3265	1,866.21	78.1484	1,866.21	79.71	1,866.21	61.875	1,866.21	77.4788	1,866.21	71.7201	1,866.21	76.0781	1,866.21	71.206	1,866.21	75.3741	1,866.21	66.7849	1,866.21	76.5664	1,866.21	74.2548	1,866.21	77.9657	1,866.21	73.9529	1,866.21	73.7257	1,866.21	73.8891	1,866.21	65.5744	1,866.21	75.3147	1,866.21	66.1307	1,866.21	74.2742	1,866.21	73.5297	1,866.21	75.1252
1,932.13	86.9021	1,932.13	87.9721	1,932.13	84.9349	1,932.13	88.4791	1,932.13	80.3489	1,932.13	87.1944	1,932.13	79.9559	1,932.13	83.6797	1,932.13	77.1403	1,932.13	79.4209	1,932.13	78.5319	1,932.13	75.0598	1,932.13	81.4477	1,932.13	73.9655	1,932.13	80.4656	1,932.13	63.72	1,932.13	79.9223	1,932.13	70.8095	1,932.13	80.1281	1,932.13	75.1565	1,932.13	78.9524	1,932.13	73.096	1,932.13	75.7449	1,932.13	69.2879	1,932.13	76.9924	1,932.13	64.4613	1,932.13	78.0058	1,932.13	73.2904	1,932.13	78.3921	1,932.13	74.3576	1,932.13	73.7206	1,932.13	74.5311	1,932.13	67.1011	1,932.13	73.3624	1,932.13	72.4556	1,932.13	73.3608
1,999.51	87.9807	1,999.51	88.7248	1,999.51	85.1273	1,999.51	87.8557	1,999.51	81.791	1,999.51	86.5152	1,999.51	78.4297	1,999.51	84.4307	1,999.51	76.236	1,999.51	81.3335	1,999.51	80.9831	1,999.51	76.5224	1,999.51	78.8608	1,999.51	59.4364	1,999.51	77.3159	1,999.51	71.1432	1,999.51	76.8944	1,999.51	67.7396	1,999.51	73.5841	1,999.51	65.0628	1,999.51	77.9348	1,999.51	73.3176	1,999.51	77.6254	1,999.51	69.9797	1,999.51	70.8056	1,999.51	58.3936	1,999.51	72.1311	1,999.51	68.5723	1,999.51	74.8864	1,999.51	72.637	1,999.51	76.3474	1,999.51	74.4449	1,999.51	64.0068	1,999.51	71.9087	1,999.51	75.4476	1,999.51	74.2951
2,069.82	88.699	2,069.82	89.0046	2,069.82	86.201	2,069.82	86.9985	2,069.82	80.9098	2,069.82	84.2324	2,069.82	75.7898	2,069.82	81.5116	2,069.82	77.77	2,069.82	80.0365	2,069.82	80.6232	2,069.82	74.032	2,069.82	80.4174	2,069.82	71.4202	2,069.82	79.3547	2,069.82	68.4047	2,069.82	80.3289	2,069.82	65.6812	2,069.82	78.499	2,069.82	68.5045	2,069.82	76.0497	2,069.82	71.0746	2,069.82	76.1598	2,069.82	69.6701	2,069.82	75.778	2,069.82	61.1929	2,069.82	75.268	2,069.82	69.8112	2,069.82	68.8927	2,069.82	69.5912	2,069.82	73.6258	2,069.82	68.8445	2,069.82	70.2615	2,069.82	71.2129	2,069.82	75.9514	2,069.82	75.3428
2,143.07	88.7285	2,143.07	88.6611	2,143.07	86.8976	2,143.07	86.0408	2,143.07	82.6254	2,143.07	83.0427	2,143.07	73.7921	2,143.07	80.1881	2,143.07	75.6033	2,143.07	77.3856	2,143.07	76.8642	2,143.07	73.5552	2,143.07	80.1249	2,143.07	74.0512	2,143.07	82.4852	2,143.07	76.8056	2,143.07	81.3945	2,143.07	65.2967	2,143.07	78.9458	2,143.07	70.1794	2,143.07	80.3521	2,143.07	71.006	2,143.07	80.5299	2,143.07	65.1108	2,143.07	73.8386	2,143.07	72.6108	2,143.07	78.7271	2,143.07	70.304	2,143.07	74.8864	2,143.07	65.3712	2,143.07	72.8571	2,143.07	67.0862	2,143.07	72.0458	2,143.07	72.8689	2,143.07	74.7009	2,143.07	75.2781
2,219.24	87.575	2,219.24	87.8945	2,219.24	84.4194	2,219.24	86.1015	2,219.24	80.2666	2,219.24	80.972	2,219.24	77.9996	2,219.24	73.9854	2,219.24	77.2465	2,219.24	75.9452	2,219.24	78.9845	2,219.24	70.3264	2,219.24	81.9549	2,219.24	73.6714	2,219.24	82.9839	2,219.24	75.5941	2,219.24	81.7519	2,219.24	71.9068	2,219.24	80.2525	2,219.24	72.9338	2,219.24	80.0471	2,219.24	69.3642	2,219.24	82.981	2,219.24	77.1804	2,219.24	78.6881	2,219.24	67.8042	2,219.24	63.5257	2,219.24	67.2742	2,219.24	73.9299	2,219.24	70.4315	2,219.24	70.312	2,219.24	65.6044	2,219.24	68.1941	2,219.24	70.2809	2,219.24	74.1156	2,219.24	75.2306
2,296.88	87.3307	2,296.88	87.0096	2,296.88	85.3179	2,296.88	85.2767	2,296.88	81.1751	2,296.88	80.7369	2,296.88	67.4744	2,296.88	70.4441	2,296.88	79.3215	2,296.88	69.3957	2,296.88	80.6067	2,296.88	76.8495	2,296.88	78.5715	2,296.88	76.2797	2,296.88	80.2186	2,296.88	77.5453	2,296.88	79.1775	2,296.88	69.8739	2,296.88	78.4777	2,296.88	69.5447	2,296.88	74.7781	2,296.88	67.4683	2,296.88	75.1397	2,296.88	64.6538	2,296.88	80.7951	2,296.88	63.6668	2,296.88	75.3263	2,296.88	65.7575	2,296.88	74.132	2,296.88	66.044	2,296.88	76.3947	2,296.88	67.8283	2,296.88	63.6804	2,296.88	54.5151	2,296.88	76.2982	2,296.88	68.8784
2,378.91	88.63	2,378.91	87.5601	2,378.91	85.2744	2,378.91	85.4634	2,378.91	68.1968	2,378.91	80.7482	2,378.91	75.4754	2,378.91	68.9285	2,378.91	79.0951	2,378.91	59.6832	2,378.91	80.2263	2,378.91	71.3448	2,378.91	81.8999	2,378.91	76.7946	2,378.91	83.9204	2,378.91	81.4851	2,378.91	82.8619	2,378.91	78.1116	2,378.91	82.5299	2,378.91	75.1744	2,378.91	78.5645	2,378.91	73.9068	2,378.91	77.4602	2,378.91	75.7572	2,378.91	75.6084	2,378.91	73.9685	2,378.91	73.975	2,378.91	68.2569	2,378.91	60.417	2,378.91	61.4805	2,378.91	74.0474	2,378.91	73.3249	2,378.91	60.1017	2,378.91	72.6867	2,378.91	75.558	2,378.91	74.831
2,462.4	90.0843	2,462.4	88.797	2,462.4	88.3966	2,462.4	84.8205	2,462.4	79.858	2,462.4	73.7676	2,462.4	71.2456	2,462.4	73.5951	2,462.4	79.9926	2,462.4	66.3162	2,462.4	81.9807	2,462.4	67.2292	2,462.4	82.359	2,462.4	71.6719	2,462.4	81.9506	2,462.4	70.562	2,462.4	80.6868	2,462.4	67.2378	2,462.4	77.5858	2,462.4	69.7923	2,462.4	75.2717	2,462.4	67.6206	2,462.4	76.843	2,462.4	69.7781	2,462.4	74.9249	2,462.4	69.731	2,462.4	71.3764	2,462.4	67.6172	2,462.4	74.8242	2,462.4	62.6971	2,462.4	67.6533	2,462.4	69.707	2,462.4	64.8352	2,462.4	71.4147	2,462.4	73.4999	2,462.4	73.3865
2,548.83	89.8494	2,548.83	88.9987	2,548.83	88.5475	2,548.83	84.4819	2,548.83	82.7528	2,548.83	77.2714	2,548.83	67.6225	2,548.83	73.1182	2,548.83	80.7372	2,548.83	69.2695	2,548.83	82.0461	2,548.83	71.2601	2,548.83	82.5199	2,548.83	69.1981	2,548.83	79.1057	2,548.83	73.9849	2,548.83	81.7496	2,548.83	74.9155	2,548.83	81.6058	2,548.83	72.39	2,548.83	66.6891	2,548.83	64.1929	2,548.83	73.0724	2,548.83	69.5262	2,548.83	73.0014	2,548.83	71.659	2,548.83	70.4523	2,548.83	69.3919	2,548.83	74.5898	2,548.83	67.0716	2,548.83	71.7424	2,548.83	67.2237	2,548.83	61.8398	2,548.83	72.5801	2,548.83	73.8467	2,548.83	75.8725
2,639.65	88.6512	2,639.65	87.6826	2,639.65	87.2907	2,639.65	83.3248	2,639.65	82.9642	2,639.65	79.6229	2,639.65	70.9065	2,639.65	70.6687	2,639.65	80.9736	2,639.65	73.9945	2,639.65	83.3838	2,639.65	73.8924	2,639.65	82.0805	2,639.65	75.2247	2,639.65	79.0539	2,639.65	69.8675	2,639.65	83.3294	2,639.65	68.0993	2,639.65	82.6993	2,639.65	71.8471	2,639.65	74.9357	2,639.65	75.4284	2,639.65	70.5843	2,639.65	68.8018	2,639.65	71.9003	2,639.65	71.6972	2,639.65	75.9595	2,639.65	71.0886	2,639.65	72.9298	2,639.65	65.5635	2,639.65	74.0936	2,639.65	66.9121	2,639.65	52.7046	2,639.65	73.2211	2,639.65	75.5938	2,639.65	75.689
2,731.93	88.3142	2,731.93	86.3249	2,731.93	86.3986	2,731.93	82.4357	2,731.93	81.1881	2,731.93	76.8237	2,731.93	75.2638	2,731.93	75.8472	2,731.93	81.5663	2,731.93	75.4329	2,731.93	83.657	2,731.93	74.4008	2,731.93	82.0277	2,731.93	74.4046	2,731.93	78.6878	2,731.93	75.6886	2,731.93	81.1395	2,731.93	76.681	2,731.93	80.8846	2,731.93	74.9602	2,731.93	70.696	2,731.93	74.8884	2,731.93	71.6312	2,731.93	73.5714	2,731.93	76.4942	2,731.93	67.5649	2,731.93	77.1087	2,731.93	70.9663	2,731.93	73.3215	2,731.93	68.2768	2,731.93	72.0654	2,731.93	65.3985	2,731.93	64.4352	2,731.93	70.7571	2,731.93	76.1367	2,731.93	74.1754
2,828.61	88.619	2,828.61	86.7733	2,828.61	86.7682	2,828.61	82.7144	2,828.61	79.44	2,828.61	77.3483	2,828.61	79.4564	2,828.61	76.8126	2,828.61	82.3465	2,828.61	74.4378	2,828.61	84.0996	2,828.61	75.1382	2,828.61	81.5962	2,828.61	74.7749	2,828.61	79.7522	2,828.61	77.3174	2,828.61	81.407	2,828.61	77.575	2,828.61	79.147	2,828.61	72.8437	2,828.61	73.2394	2,828.61	72.7609	2,828.61	71.3458	2,828.61	73.8426	2,828.61	77.6298	2,828.61	71.4338	2,828.61	75.5964	2,828.61	72.0855	2,828.61	74.2245	2,828.61	66.7006	2,828.61	71.8397	2,828.61	65.3864	2,828.61	64.1025	2,828.61	72.4184	2,828.61	76.2612	2,828.61	74.8408
2,928.22	88.8484	2,928.22	87.62	2,928.22	86.7598	2,928.22	83.7753	2,928.22	77.5313	2,928.22	79.704	2,928.22	79.7024	2,928.22	76.2956	2,928.22	83.252	2,928.22	77.0071	2,928.22	84.031	2,928.22	78.0469	2,928.22	81.7862	2,928.22	79.864	2,928.22	81.1325	2,928.22	78.6365	2,928.22	79.6087	2,928.22	74.8742	2,928.22	73.1628	2,928.22	75.3123	2,928.22	75.627	2,928.22	72.3847	2,928.22	74.0245	2,928.22	74.5044	2,928.22	76.1244	2,928.22	72.7601	2,928.22	76.6041	2,928.22	72.7983	2,928.22	72.222	2,928.22	72.8574	2,928.22	69.8722	2,928.22	63.2574	2,928.22	66.8737	2,928.22	71.7484	2,928.22	75.3945	2,928.22	74.7877
3,030.76	88.6937	3,030.76	87.1352	3,030.76	86.8728	3,030.76	84.4622	3,030.76	76.8189	3,030.76	80.0043	3,030.76	79.703	3,030.76	77.4653	3,030.76	83.9802	3,030.76	78.1557	3,030.76	83.7996	3,030.76	80.036	3,030.76	81.0477	3,030.76	79.8349	3,030.76	80.7304	3,030.76	75.9826	3,030.76	77.3396	3,030.76	77.497	3,030.76	67.3482	3,030.76	77.7058	3,030.76	77.0603	3,030.76	75.1061	3,030.76	70.9385	3,030.76	75.0243	3,030.76	74.1037	3,030.76	75.127	3,030.76	75.9809	3,030.76	71.8189	3,030.76	73.9023	3,030.76	73.1456	3,030.76	71.1311	3,030.76	67.7814	3,030.76	70.1807	3,030.76	72.6253	3,030.76	77.2199	3,030.76	75.8387
3,137.7	87.7796	3,137.7	87.0587	3,137.7	86.5409	3,137.7	84.3056	3,137.7	79.5494	3,137.7	79.2624	3,137.7	78.958	3,137.7	80.0049	3,137.7	84.1585	3,137.7	80.2845	3,137.7	83.5411	3,137.7	80.8706	3,137.7	79.7074	3,137.7	77.7299	3,137.7	78.7085	3,137.7	78.8093	3,137.7	74.6898	3,137.7	79.1947	3,137.7	73.1812	3,137.7	76.7715	3,137.7	78.7524	3,137.7	76.3144	3,137.7	72.6717	3,137.7	73.9865	3,137.7	72.3285	3,137.7	75.7655	3,137.7	77.2022	3,137.7	72.4094	3,137.7	72.9376	3,137.7	73.5634	3,137.7	71.7345	3,137.7	67.8344	3,137.7	71.097	3,137.7	74.3726	3,137.7	77.6731	3,137.7	74.3371
3,249.02	87.2348	3,249.02	86.7912	3,249.02	85.2112	3,249.02	82.9154	3,249.02	79.2702	3,249.02	79.8067	3,249.02	78.5241	3,249.02	80.1829	3,249.02	83.1801	3,249.02	81.7474	3,249.02	83.3487	3,249.02	81.0122	3,249.02	80.6161	3,249.02	81.4482	3,249.02	78.213	3,249.02	81.4767	3,249.02	62.8604	3,249.02	79.1032	3,249.02	73.7226	3,249.02	76.6806	3,249.02	79.8772	3,249.02	75.4136	3,249.02	77.4845	3,249.02	75.7044	3,249.02	72.6941	3,249.02	75.4693	3,249.02	78.2729	3,249.02	74.8342	3,249.02	73.1034	3,249.02	73.2578	3,249.02	72.5607	3,249.02	68.1593	3,249.02	72.4202	3,249.02	74.9135	3,249.02	77.252	3,249.02	74.4294
3,363.28	87.1681	3,363.28	86.7786	3,363.28	84.3809	3,363.28	83.0649	3,363.28	77.777	3,363.28	80.2262	3,363.28	78.0429	3,363.28	81.4102	3,363.28	82.2727	3,363.28	82.3179	3,363.28	82.585	3,363.28	82.7123	3,363.28	81.3875	3,363.28	82.8042	3,363.28	80.1906	3,363.28	78.9377	3,363.28	72.9219	3,363.28	76.8039	3,363.28	78.5317	3,363.28	77.7857	3,363.28	80.8584	3,363.28	75.1832	3,363.28	77.3503	3,363.28	76.2911	3,363.28	73.8146	3,363.28	76.4793	3,363.28	78.3131	3,363.28	73.6025	3,363.28	74.1436	3,363.28	73.8997	3,363.28	72.4952	3,363.28	68.998	3,363.28	72.1674	3,363.28	73.6635	3,363.28	77.0797	3,363.28	73.5568
3,481.93	86.7633	3,481.93	86.5857	3,481.93	83.4458	3,481.93	84.1812	3,481.93	78.1256	3,481.93	81.6924	3,481.93	76.6676	3,481.93	82.1316	3,481.93	82.0713	3,481.93	83.0901	3,481.93	81.8867	3,481.93	84.2367	3,481.93	83.2428	3,481.93	82.0288	3,481.93	82.7421	3,481.93	79.0042	3,481.93	79.2184	3,481.93	78.9284	3,481.93	81.4693	3,481.93	76.9827	3,481.93	82.3366	3,481.93	74.5363	3,481.93	78.6942	3,481.93	74.6782	3,481.93	71.3647	3,481.93	76.2284	3,481.93	76.9535	3,481.93	75.2187	3,481.93	73.5332	3,481.93	73.9986	3,481.93	71.054	3,481.93	72.0652	3,481.93	71.8063	3,481.93	74.5188	3,481.93	77.0975	3,481.93	74.1992
3,604.98	86.8234	3,604.98	86.2545	3,604.98	82.9642	3,604.98	84.5224	3,604.98	77.0122	3,604.98	80.6195	3,604.98	72.4306	3,604.98	83.1836	3,604.98	80.703	3,604.98	84.1736	3,604.98	82.391	3,604.98	84.2379	3,604.98	85.8211	3,604.98	79.9303	3,604.98	83.4999	3,604.98	81.1899	3,604.98	83.3494	3,604.98	77.4224	3,604.98	83.5605	3,604.98	74.7789	3,604.98	81.0825	3,604.98	75.3676	3,604.98	78.92	3,604.98	72.9918	3,604.98	70.2854	3,604.98	75.2672	3,604.98	75.5846	3,604.98	74.869	3,604.98	74.5111	3,604.98	72.8322	3,604.98	69.5443	3,604.98	72.2841	3,604.98	70.0057	3,604.98	74.1645	3,604.98	77.3075	3,604.98	75.4405
3,732.42	87.1956	3,732.42	87.0155	3,732.42	84.7128	3,732.42	83.995	3,732.42	75.2552	3,732.42	80.1215	3,732.42	78.0212	3,732.42	83.8238	3,732.42	79.5151	3,732.42	84.9352	3,732.42	81.3567	3,732.42	81.2434	3,732.42	86.3706	3,732.42	80.0691	3,732.42	84.6868	3,732.42	76.1709	3,732.42	83.2553	3,732.42	75.5679	3,732.42	83.0757	3,732.42	75.5054	3,732.42	81.4802	3,732.42	72.8782	3,732.42	75.9095	3,732.42	73.4383	3,732.42	67.264	3,732.42	73.9145	3,732.42	74.8691	3,732.42	74.5829	3,732.42	73.5138	3,732.42	71.4506	3,732.42	69.143	3,732.42	71.0986	3,732.42	72.178	3,732.42	75.7113	3,732.42	77.3027	3,732.42	76.2282
3,864.26	86.4022	3,864.26	87.3434	3,864.26	85.3538	3,864.26	83.3989	3,864.26	79.7819	3,864.26	82.0728	3,864.26	77.0549	3,864.26	85.4835	3,864.26	81.0908	3,864.26	82.4019	3,864.26	81.739	3,864.26	80.0931	3,864.26	86.9209	3,864.26	77.7367	3,864.26	86.3039	3,864.26	76.9884	3,864.26	83.3968	3,864.26	78.4635	3,864.26	79.5769	3,864.26	76.1682	3,864.26	77.1825	3,864.26	76.0392	3,864.26	74.85	3,864.26	75.2699	3,864.26	75.3991	3,864.26	73.9518	3,864.26	76.0768	3,864.26	75.5365	3,864.26	72.9883	3,864.26	72.5605	3,864.26	63.1822	3,864.26	70.8253	3,864.26	75.5818	3,864.26	74.1804	3,864.26	77.1545	3,864.26	74.7533
4,000.49	86.3209	4,000.49	87.1284	4,000.49	83.5053	4,000.49	79.4501	4,000.49	82.408	4,000.49	84.2839	4,000.49	78.0299	4,000.49	85.1221	4,000.49	79.0977	4,000.49	81.534	4,000.49	83.8679	4,000.49	82.4407	4,000.49	86.9403	4,000.49	83.1838	4,000.49	86.3486	4,000.49	84.2	4,000.49	85.2347	4,000.49	81.3015	4,000.49	81.3797	4,000.49	79.5597	4,000.49	77.1233	4,000.49	78.5108	4,000.49	78.5635	4,000.49	77.0922	4,000.49	75.4876	4,000.49	76.4688	4,000.49	75.8676	4,000.49	77.7437	4,000.49	68.9653	4,000.49	75.0636	4,000.49	61.8756	4,000.49	72.0441	4,000.49	75.4323	4,000.49	70.9324	4,000.49	75.2787	4,000.49	74.8301
4,141.11	86.54	4,141.11	86.0036	4,141.11	83.4459	4,141.11	77.2321	4,141.11	82.3915	4,141.11	86.8327	4,141.11	81.119	4,141.11	83.3942	4,141.11	80.6721	4,141.11	85.5772	4,141.11	85.0904	4,141.11	85.1792	4,141.11	87.0078	4,141.11	86.915	4,141.11	84.8711	4,141.11	82.5602	4,141.11	86.3679	4,141.11	78.5206	4,141.11	79.7017	4,141.11	78.9815	4,141.11	77.0728	4,141.11	78.7234	4,141.11	82.0202	4,141.11	78.3374	4,141.11	78.1361	4,141.11	77.3595	4,141.11	75.6488	4,141.11	78.091	4,141.11	63.635	4,141.11	76.8716	4,141.11	58.7951	4,141.11	76.0068	4,141.11	75.5465	4,141.11	73.9955	4,141.11	74.9202	4,141.11	77.993
4,287.6	86.0442	4,287.6	81.3339	4,287.6	81.0591	4,287.6	85.9475	4,287.6	83.3167	4,287.6	86.7822	4,287.6	82.2321	4,287.6	85.0941	4,287.6	80.8929	4,287.6	85.478	4,287.6	88.0338	4,287.6	87.8831	4,287.6	88.4972	4,287.6	83.4309	4,287.6	84.9497	4,287.6	80.7865	4,287.6	87.13	4,287.6	81.6986	4,287.6	79.5232	4,287.6	77.0621	4,287.6	77.8481	4,287.6	77.0091	4,287.6	82.3047	4,287.6	74.8412	4,287.6	78.1909	4,287.6	76.7774	4,287.6	72.2536	4,287.6	75.832	4,287.6	69.7879	4,287.6	74.8853	4,287.6	50.0567	4,287.6	73.2555	4,287.6	74.8565	4,287.6	75.0665	4,287.6	72.8219	4,287.6	78.6491
4,438.48	86.2242	4,438.48	82.2342	4,438.48	83.4113	4,438.48	86.3496	4,438.48	81.3336	4,438.48	83.9325	4,438.48	83.1901	4,438.48	85.2842	4,438.48	84.7664	4,438.48	87.6175	4,438.48	89.5347	4,438.48	83.9364	4,438.48	89.0919	4,438.48	79.0675	4,438.48	87.0352	4,438.48	79.6858	4,438.48	85.5471	4,438.48	64.1037	4,438.48	73.2938	4,438.48	73.9136	4,438.48	77.9099	4,438.48	71.0093	4,438.48	82.1274	4,438.48	71.8983	4,438.48	79.7413	4,438.48	72.3331	4,438.48	72.4882	4,438.48	73.3535	4,438.48	71.4145	4,438.48	75.192	4,438.48	63.3535	4,438.48	68.2731	4,438.48	75.9847	4,438.48	68.1367	4,438.48	70.5975	4,438.48	76.8841
4,595.21	86.1561	4,595.21	82.6535	4,595.21	84.4467	4,595.21	86.002	4,595.21	79.1274	4,595.21	83.0114	4,595.21	84.7347	4,595.21	87.059	4,595.21	85.8774	4,595.21	84.2402	4,595.21	90.1635	4,595.21	80.0857	4,595.21	89.2334	4,595.21	74.4261	4,595.21	87.972	4,595.21	75.5294	4,595.21	83.4987	4,595.21	78.3682	4,595.21	74.5424	4,595.21	72.5425	4,595.21	80.9464	4,595.21	75.3361	4,595.21	79.9533	4,595.21	72.7965	4,595.21	79.0122	4,595.21	73.1074	4,595.21	76.6905	4,595.21	73.0895	4,595.21	70.1081	4,595.21	74.7961	4,595.21	57.5972	4,595.21	70.8272	4,595.21	76.8228	4,595.21	70.3076	4,595.21	72.4684	4,595.21	75.0045
4,756.35	84.8563	4,756.35	85.6563	4,756.35	86.4525	4,756.35	88.0048	4,756.35	83.2094	4,756.35	84.7835	4,756.35	88.1144	4,756.35	86.6155	4,756.35	88.927	4,756.35	80.7096	4,756.35	90.3446	4,756.35	76.5465	4,756.35	89.9189	4,756.35	82.947	4,756.35	88.1979	4,756.35	84.518	4,756.35	81.6659	4,756.35	79.9095	4,756.35	73.0713	4,756.35	79.527	4,756.35	78.9618	4,756.35	76.5167	4,756.35	73.6316	4,756.35	74.4989	4,756.35	78.8074	4,756.35	74.8962	4,756.35	75.7423	4,756.35	76.3694	4,756.35	71.5506	4,756.35	76.5053	4,756.35	62.2964	4,756.35	73.8117	4,756.35	73.1298	4,756.35	75.1952	4,756.35	74.7661	4,756.35	77.4423
4,924.8	84.8711	4,924.8	87.9578	4,924.8	88.6265	4,924.8	81.959	4,924.8	85.0692	4,924.8	85.7007	4,924.8	89.6832	4,924.8	85.677	4,924.8	90.174	4,924.8	80.48	4,924.8	89.9836	4,924.8	84.687	4,924.8	89.2507	4,924.8	85.5144	4,924.8	84.2428	4,924.8	80.5918	4,924.8	80.8697	4,924.8	82.029	4,924.8	80.8224	4,924.8	78.0375	4,924.8	73.1662	4,924.8	78.6748	4,924.8	66.1393	4,924.8	76.8169	4,924.8	77.1826	4,924.8	75.697	4,924.8	74.4129	4,924.8	77.0228	4,924.8	66.1046	4,924.8	76.6625	4,924.8	65.7374	4,924.8	75.0408	4,924.8	70.6562	4,924.8	74.7733	4,924.8	78.2285	4,924.8	76.6368
5,097.66	88.2086	5,097.66	86.4143	5,097.66	88.4004	5,097.66	81.8551	5,097.66	88.1773	5,097.66	88.865	5,097.66	89.9306	5,097.66	83.3901	5,097.66	88.7886	5,097.66	84.5255	5,097.66	88.3321	5,097.66	86.5993	5,097.66	87.127	5,097.66	83.7569	5,097.66	81.9108	5,097.66	82.9528	5,097.66	83.1627	5,097.66	79.4381	5,097.66	80.9612	5,097.66	74.9891	5,097.66	70.9774	5,097.66	75.8292	5,097.66	74.1147	5,097.66	72.2	5,097.66	72.1841	5,097.66	73.7974	5,097.66	71.7238	5,097.66	74.2403	5,097.66	66.6324	5,097.66	74.9759	5,097.66	66.8871	5,097.66	73.5878	5,097.66	74.382	5,097.66	73.7255	5,097.66	77.6925	5,097.66	75.8672
5,277.83	89.1746	5,277.83	87.1353	5,277.83	87.7878	5,277.83	87.1246	5,277.83	87.5109	5,277.83	87.7441	5,277.83	90.4673	5,277.83	80.5426	5,277.83	89.6107	5,277.83	86.1761	5,277.83	85.7882	5,277.83	84.071	5,277.83	83.992	5,277.83	80.4146	5,277.83	86.6204	5,277.83	72.8581	5,277.83	84.8176	5,277.83	66.7614	5,277.83	81.5949	5,277.83	69.8674	5,277.83	74.4232	5,277.83	69.8874	5,277.83	75.6021	5,277.83	71.5171	5,277.83	76.8474	5,277.83	70.4286	5,277.83	72.8094	5,277.83	70.1216	5,277.83	64.1504	5,277.83	72.8775	5,277.83	69.1375	5,277.83	65.7244	5,277.83	74.5016	5,277.83	73.6836	5,277.83	75.7332	5,277.83	77.3352
5,463.87	88.4411	5,463.87	85.9576	5,463.87	89.5421	5,463.87	87.8757	5,463.87	87.3754	5,463.87	84.6055	5,463.87	90.9916	5,463.87	84.1643	5,463.87	91.0819	5,463.87	84.6496	5,463.87	83.557	5,463.87	78.9437	5,463.87	82.9676	5,463.87	63.6086	5,463.87	86.8713	5,463.87	77.2093	5,463.87	84.534	5,463.87	73.3131	5,463.87	82.9527	5,463.87	73.0171	5,463.87	76.474	5,463.87	70.1929	5,463.87	70.1022	5,463.87	70.6727	5,463.87	75.9096	5,463.87	69.4884	5,463.87	77.6955	5,463.87	70.1978	5,463.87	70.9164	5,463.87	73.7927	5,463.87	69.6743	5,463.87	66.5343	5,463.87	74.6953	5,463.87	66.9427	5,463.87	72.935	5,463.87	74.1968
5,657.23	88.8024	5,657.23	87.1764	5,657.23	90.7904	5,657.23	87.9196	5,657.23	87.8807	5,657.23	83.9731	5,657.23	89.8131	5,657.23	85.5758	5,657.23	90.3241	5,657.23	81.2577	5,657.23	83.8629	5,657.23	76.2493	5,657.23	85.2683	5,657.23	77.9704	5,657.23	86.5703	5,657.23	77.0531	5,657.23	83.7187	5,657.23	77.5274	5,657.23	80.0298	5,657.23	75.5632	5,657.23	74.6651	5,657.23	74.5043	5,657.23	70.7919	5,657.23	73.2294	5,657.23	74.0805	5,657.23	70.9043	5,657.23	75.8706	5,657.23	73.5142	5,657.23	72.4377	5,657.23	73.7469	5,657.23	72.3563	5,657.23	69.8144	5,657.23	72.592	5,657.23	70.7662	5,657.23	75.9713	5,657.23	76.0405
5,856.45	88.219	5,856.45	87.9081	5,856.45	89.3212	5,856.45	87.3416	5,856.45	88.3299	5,856.45	84.1751	5,856.45	89.7276	5,856.45	85.4426	5,856.45	87.9323	5,856.45	79.194	5,856.45	82.2162	5,856.45	80.4192	5,856.45	84.5251	5,856.45	80.5384	5,856.45	84.1215	5,856.45	80.7422	5,856.45	78.9542	5,856.45	78.0448	5,856.45	75.7346	5,856.45	73.9773	5,856.45	72.1802	5,856.45	74.6056	5,856.45	70.2533	5,856.45	73.8455	5,856.45	70.6547	5,856.45	70.2561	5,856.45	73.8295	5,856.45	70.3067	5,856.45	71.1476	5,856.45	72.2677	5,856.45	69.0823	5,856.45	71.2056	5,856.45	67.1226	5,856.45	67.7261	5,856.45	75.7631	5,856.45	75.5438
6,062.99	88.3164	6,062.99	88.4046	6,062.99	89.2571	6,062.99	86.6242	6,062.99	87.6829	6,062.99	86.3859	6,062.99	89.6469	6,062.99	83.8378	6,062.99	85.7846	6,062.99	81.2082	6,062.99	77.9897	6,062.99	82.3452	6,062.99	83.6023	6,062.99	78.8214	6,062.99	80.9493	6,062.99	76.3912	6,062.99	73.399	6,062.99	72.9865	6,062.99	68.8967	6,062.99	72.6585	6,062.99	69.2695	6,062.99	69.2577	6,062.99	68.2655	6,062.99	72.3557	6,062.99	70.3867	6,062.99	70.5946	6,062.99	73.737	6,062.99	69.1316	6,062.99	73.4838	6,062.99	69.6986	6,062.99	70.8283	6,062.99	69.7733	6,062.99	61.9891	6,062.99	65.1516	6,062.99	73.6215	6,062.99	74.6396
6,276.86	87.8809	6,276.86	87.5564	6,276.86	89.1287	6,276.86	86.2086	6,276.86	87.1058	6,276.86	86.8793	6,276.86	87.6747	6,276.86	83.2082	6,276.86	84.0477	6,276.86	82.953	6,276.86	75.8297	6,276.86	80.7575	6,276.86	82.2133	6,276.86	75.2936	6,276.86	71.1949	6,276.86	75.2386	6,276.86	70.1074	6,276.86	72.2492	6,276.86	65.6089	6,276.86	69.7908	6,276.86	65.3959	6,276.86	70.5781	6,276.86	57.1472	6,276.86	66.5689	6,276.86	67.6056	6,276.86	72.3156	6,276.86	70.6119	6,276.86	67.3221	6,276.86	72.7509	6,276.86	68.0635	6,276.86	71.0056	6,276.86	66.9211	6,276.86	61.7614	6,276.86	67.8413	6,276.86	74.8974	6,276.86	72.0448
6,498.05	88.8569	6,498.05	88.0936	6,498.05	88.2521	6,498.05	87.2627	6,498.05	86.5971	6,498.05	86.5831	6,498.05	87.1833	6,498.05	82.4475	6,498.05	82.9397	6,498.05	82.4832	6,498.05	74.9842	6,498.05	77.3759	6,498.05	79.7626	6,498.05	75.6669	6,498.05	72.1228	6,498.05	73.6455	6,498.05	72.009	6,498.05	74.7298	6,498.05	71.7296	6,498.05	72.2936	6,498.05	68.1444	6,498.05	70.7743	6,498.05	59.2473	6,498.05	68.4162	6,498.05	65.1225	6,498.05	68.8739	6,498.05	67.36	6,498.05	69.535	6,498.05	74.2213	6,498.05	69.4818	6,498.05	70.9491	6,498.05	64.0607	6,498.05	63.1188	6,498.05	61.0724	6,498.05	71.1576	6,498.05	67.7315
6,726.56	87.7801	6,726.56	86.6119	6,726.56	87.8176	6,726.56	87.9275	6,726.56	84.6505	6,726.56	85.6125	6,726.56	87.1387	6,726.56	82.4355	6,726.56	81.8327	6,726.56	82.8403	6,726.56	72.0969	6,726.56	78.6994	6,726.56	74.799	6,726.56	79.731	6,726.56	78.8162	6,726.56	78.6853	6,726.56	79.5497	6,726.56	76.4073	6,726.56	74.9646	6,726.56	73.3951	6,726.56	66.6925	6,726.56	71.8654	6,726.56	62.0245	6,726.56	69.8373	6,726.56	59.4125	6,726.56	69.7934	6,726.56	68.1442	6,726.56	70.118	6,726.56	72.2574	6,726.56	70.3821	6,726.56	71.84	6,726.56	66.3759	6,726.56	65.947	6,726.56	63.7248	6,726.56	69.5972	6,726.56	70.375
6,963.87	85.8582	6,963.87	85.8739	6,963.87	86.3302	6,963.87	88.0918	6,963.87	83.4654	6,963.87	82.2639	6,963.87	85.346	6,963.87	85.229	6,963.87	83.1673	6,963.87	82.5855	6,963.87	79.2719	6,963.87	82.9267	6,963.87	78.89	6,963.87	81.7673	6,963.87	83.3835	6,963.87	78.2811	6,963.87	82.9285	6,963.87	76.8095	6,963.87	74.3087	6,963.87	72.6815	6,963.87	72.9096	6,963.87	71.6606	6,963.87	70.2764	6,963.87	68.9018	6,963.87	54.0449	6,963.87	71.0818	6,963.87	66.8754	6,963.87	69.1768	6,963.87	61.3368	6,963.87	70.3208	6,963.87	71.2419	6,963.87	66.9522	6,963.87	62.5392	6,963.87	69.4173	6,963.87	72.9542	6,963.87	73.3006
7,209.96	85.618	7,209.96	86.4892	7,209.96	85.3739	7,209.96	86.5868	7,209.96	83.1638	7,209.96	84.1012	7,209.96	83.764	7,209.96	84.814	7,209.96	82.9518	7,209.96	82.888	7,209.96	80.7674	7,209.96	82.6792	7,209.96	73.6268	7,209.96	78.1081	7,209.96	84.3919	7,209.96	69.4665	7,209.96	81.7299	7,209.96	65.6641	7,209.96	76.8964	7,209.96	64.2943	7,209.96	76.6748	7,209.96	62.9727	7,209.96	71.5589	7,209.96	62.486	7,209.96	63.953	7,209.96	62.9178	7,209.96	67.6376	7,209.96	67.9758	7,209.96	71.5221	7,209.96	55.5046	7,209.96	70.2982	7,209.96	64.0287	7,209.96	67.1876	7,209.96	64.9953	7,209.96	70.7766	7,209.96	74.7898
7,464.84	84.434	7,464.84	86.0592	7,464.84	85.4316	7,464.84	84.246	7,464.84	83.7742	7,464.84	85.6773	7,464.84	82.0771	7,464.84	81.3995	7,464.84	83.4396	7,464.84	84.53	7,464.84	82.8712	7,464.84	74.9182	7,464.84	76.3158	7,464.84	76.0978	7,464.84	85.9218	7,464.84	75.5345	7,464.84	80.8763	7,464.84	73.0163	7,464.84	75.0173	7,464.84	71.524	7,464.84	75.7326	7,464.84	69.1954	7,464.84	71.6191	7,464.84	64.8944	7,464.84	67.2867	7,464.84	67.0506	7,464.84	69.212	7,464.84	67.1498	7,464.84	70.7335	7,464.84	66.0023	7,464.84	67.3146	7,464.84	64.6785	7,464.84	58.6774	7,464.84	52.7691	7,464.84	68.116	7,464.84	72.2785
7,727.05	82.1929	7,727.05	86.5893	7,727.05	84.2702	7,727.05	85.422	7,727.05	81.6124	7,727.05	84.7168	7,727.05	79.6638	7,727.05	84.2278	7,727.05	85.2075	7,727.05	83.8234	7,727.05	84.0626	7,727.05	80.7244	7,727.05	79.4008	7,727.05	80.4462	7,727.05	84.7265	7,727.05	78.6375	7,727.05	76.9381	7,727.05	74.7755	7,727.05	73.339	7,727.05	71.2485	7,727.05	78.5312	7,727.05	69.5367	7,727.05	78.1946	7,727.05	68.2707	7,727.05	65.912	7,727.05	69.0589	7,727.05	67.9858	7,727.05	61.0821	7,727.05	71.417	7,727.05	68.3315	7,727.05	71.1025	7,727.05	65.4473	7,727.05	60.3736	7,727.05	61.2628	7,727.05	66.7284	7,727.05	68.2442
7,999.51	85.654	7,999.51	87.1487	7,999.51	83.4845	7,999.51	83.8728	7,999.51	82.4687	7,999.51	83.5547	7,999.51	80.6746	7,999.51	85.12	7,999.51	84.2326	7,999.51	81.0703	7,999.51	83.0833	7,999.51	81.044	7,999.51	79.4855	7,999.51	75.8936	7,999.51	81.0657	7,999.51	69.457	7,999.51	72.4472	7,999.51	57.4652	7,999.51	73.9728	7,999.51	61.3414	7,999.51	79.9312	7,999.51	59.7688	7,999.51	78.8862	7,999.51	62.6123	7,999.51	68.7873	7,999.51	61.7808	7,999.51	67.0936	7,999.51	59.0538	7,999.51	67.0009	7,999.51	61.5389	7,999.51	68.6878	7,999.51	58.2741	7,999.51	67.1711	7,999.51	54.152	7,999.51	66.5294	7,999.51	66.5278
8,282.23	85.8539	8,282.23	86.2033	8,282.23	84.1933	8,282.23	86.7802	8,282.23	85.6672	8,282.23	86.1162	8,282.23	84.1848	8,282.23	82.9395	8,282.23	83.6939	8,282.23	79.9159	8,282.23	86.7592	8,282.23	71.2082	8,282.23	81.8492	8,282.23	73.1529	8,282.23	71.8214	8,282.23	69.3383	8,282.23	75.8355	8,282.23	70.8509	8,282.23	77.0672	8,282.23	68.753	8,282.23	77.189	8,282.23	65.288	8,282.23	76.5602	8,282.23	64.4238	8,282.23	70.5294	8,282.23	64.2138	8,282.23	65.7738	8,282.23	62.698	8,282.23	58.3494	8,282.23	63.0686	8,282.23	69.9003	8,282.23	64.0807	8,282.23	63.1785	8,282.23	60.7635	8,282.23	67.9493	8,282.23	69.7566
8,573.73	85.3056	8,573.73	87.1489	8,573.73	83.9493	8,573.73	85.8815	8,573.73	85.9359	8,573.73	86.6261	8,573.73	85.4359	8,573.73	82.2484	8,573.73	83.6013	8,573.73	81.4248	8,573.73	87.8051	8,573.73	76.1137	8,573.73	78.9071	8,573.73	78.5006	8,573.73	76.3906	8,573.73	73.7161	8,573.73	78.092	8,573.73	70.2015	8,573.73	77.9291	8,573.73	68.5972	8,573.73	75.6346	8,573.73	66.7785	8,573.73	72.1269	8,573.73	66.2295	8,573.73	70.9001	8,573.73	64.2269	8,573.73	68.2876	8,573.73	63.2067	8,573.73	60.5137	8,573.73	63.1211	8,573.73	68.2672	8,573.73	64.6216	8,573.73	64.91	8,573.73	61.5609	8,573.73	63.9808	8,573.73	71.7845
8,876.95	85.6744	8,876.95	85.954	8,876.95	86.2269	8,876.95	87.2384	8,876.95	86.4258	8,876.95	85.474	8,876.95	84.9115	8,876.95	83.2195	8,876.95	84.8541	8,876.95	80.396	8,876.95	86.5603	8,876.95	77.3302	8,876.95	76.8965	8,876.95	74.7512	8,876.95	80.188	8,876.95	69.643	8,876.95	75.8053	8,876.95	68.3085	8,876.95	73.5262	8,876.95	64.6851	8,876.95	68.5517	8,876.95	64.8593	8,876.95	66.6524	8,876.95	61.7531	8,876.95	67.7618	8,876.95	59.9063	8,876.95	70.305	8,876.95	64.2775	8,876.95	61.0911	8,876.95	62.4918	8,876.95	64.2494	8,876.95	53.5754	8,876.95	64.1387	8,876.95	54.3917	8,876.95	63.6499	8,876.95	67.4839
9,188.96	85.2264	9,188.96	85.4947	9,188.96	86.9104	9,188.96	86.3321	9,188.96	86.3661	9,188.96	85.6118	9,188.96	84.4625	9,188.96	82.8707	9,188.96	86.0073	9,188.96	81.5782	9,188.96	84.346	9,188.96	76.4899	9,188.96	76.3688	9,188.96	74.8399	9,188.96	79.874	9,188.96	72.313	9,188.96	75.3563	9,188.96	69.1956	9,188.96	75.2184	9,188.96	66.0166	9,188.96	55.3996	9,188.96	63.8271	9,188.96	62.776	9,188.96	64.0419	9,188.96	61.6389	9,188.96	58.6097	9,188.96	68.6728	9,188.96	64.6014	9,188.96	61.123	9,188.96	61.9303	9,188.96	64.1882	9,188.96	62.5143	9,188.96	65.3958	9,188.96	52.6339	9,188.96	65.6842	9,188.96	60.1336
9,514.16	85.6492	9,514.16	86.4181	9,514.16	87.394	9,514.16	86.3934	9,514.16	87.153	9,514.16	85.1753	9,514.16	85.2458	9,514.16	83.3101	9,514.16	85.158	9,514.16	81.4139	9,514.16	79.3639	9,514.16	76.7584	9,514.16	79.9668	9,514.16	74.8112	9,514.16	77.7004	9,514.16	70.7232	9,514.16	71.1225	9,514.16	67.313	9,514.16	69.0199	9,514.16	64.2321	9,514.16	66.2936	9,514.16	63.3541	9,514.16	71.3252	9,514.16	63.0376	9,514.16	58.0953	9,514.16	61.4787	9,514.16	68.6132	9,514.16	61.3684	9,514.16	51.9707	9,514.16	62.4346	9,514.16	64.9572	9,514.16	60.4034	9,514.16	61.6758	9,514.16	40.5351	9,514.16	63.3761	9,514.16	58.6918
9,849.61	86.6839	9,849.61	88.2979	9,849.61	88.2381	9,849.61	86.3573	9,849.61	88.4176	9,849.61	85.6659	9,849.61	87.1262	9,849.61	83.0677	9,849.61	83.6983	9,849.61	80.6678	9,849.61	72.4836	9,849.61	76.1578	9,849.61	82.209	9,849.61	72.6038	9,849.61	73.7341	9,849.61	66.2776	9,849.61	74.3185	9,849.61	64.9123	9,849.61	65.8023	9,849.61	58.2897	9,849.61	67.1569	9,849.61	54.2676	9,849.61	70.6535	9,849.61	55.3731	9,849.61	57.455	9,849.61	61.7763	9,849.61	63.9273	9,849.61	63.0457	9,849.61	47.7635	9,849.61	62.7085	9,849.61	63.5594	9,849.61	56.2303	9,849.61	61.4274	9,849.61	50.566	9,849.61	60.233	9,849.61	56.3044
10,196.8	89.3546	10,196.8	89.5507	10,196.8	89.2208	10,196.8	87.4169	10,196.8	89.132	10,196.8	85.7718	10,196.8	88.0241	10,196.8	83.1002	10,196.8	83.1907	10,196.8	81.1235	10,196.8	78.9873	10,196.8	75.3234	10,196.8	80.9695	10,196.8	73.6584	10,196.8	72.5439	10,196.8	67.7237	10,196.8	74.6123	10,196.8	63.5226	10,196.8	65.3888	10,196.8	61.0653	10,196.8	62.9419	10,196.8	57.1992	10,196.8	63.8145	10,196.8	56.0757	10,196.8	55.2785	10,196.8	56.4083	10,196.8	59.8497	10,196.8	63.3226	10,196.8	56.5076	10,196.8	60.9419	10,196.8	62.8825	10,196.8	55.8731	10,196.8	58.304	10,196.8	55.2546	10,196.8	56.1273	10,196.8	54.6925
10,555.7	90.5635	10,555.7	90.4729	10,555.7	89.9543	10,555.7	88.2102	10,555.7	89.0123	10,555.7	85.9762	10,555.7	88.2743	10,555.7	83.5468	10,555.7	82.3788	10,555.7	79.9561	10,555.7	81.721	10,555.7	75.574	10,555.7	78.9292	10,555.7	72.3697	10,555.7	73.5346	10,555.7	65.1913	10,555.7	71.252	10,555.7	61.454	10,555.7	61.7153	10,555.7	58.3724	10,555.7	63.1183	10,555.7	56.853	10,555.7	62.5187	10,555.7	55.6717	10,555.7	53.1028	10,555.7	51.8532	10,555.7	43.0736	10,555.7	59.1922	10,555.7	57.6192	10,555.7	57.817	10,555.7	56.1992	10,555.7	57.8067	10,555.7	52.421	10,555.7	54.7156	10,555.7	53.1107	10,555.7	52.0127
10,927.7	91.5071	10,927.7	90.989	10,927.7	91.3336	10,927.7	88.7979	10,927.7	88.7946	10,927.7	86.1549	10,927.7	87.1463	10,927.7	83.0717	10,927.7	82.6687	10,927.7	80.0298	10,927.7	82.4215	10,927.7	73.3796	10,927.7	74.875	10,927.7	70.441	10,927.7	73.2399	10,927.7	60.6489	10,927.7	61.1685	10,927.7	61.0546	10,927.7	63.4343	10,927.7	51.0957	10,927.7	57.255	10,927.7	55.2198	10,927.7	68.4315	10,927.7	52.1162	10,927.7	58.6365	10,927.7	56.6707	10,927.7	44.9253	10,927.7	56.8845	10,927.7	57.7383	10,927.7	54.632	10,927.7	50.1074	10,927.7	54.559	10,927.7	51.8963	10,927.7	46.1955	10,927.7	41.2851	10,927.7	52.488
11,313	92.5402	11,313	92.0991	11,313	91.8467	11,313	89.2367	11,313	89.1175	11,313	86.2373	11,313	85.4807	11,313	82.7664	11,313	82.2287	11,313	80.0782	11,313	81.5742	11,313	71.4653	11,313	73.986	11,313	69.0753	11,313	68.8454	11,313	61.9404	11,313	57.9267	11,313	57.1016	11,313	64.1932	11,313	54.6101	11,313	57.0993	11,313	56.2843	11,313	71.7713	11,313	52.3519	11,313	60.0072	11,313	58.5501	11,313	49.4081	11,313	58.5834	11,313	49.9434	11,313	54.8447	11,313	54.234	11,313	57.1632	11,313	53.2034	11,313	48.849	11,313	55.4633	11,313	53.1617
11,712.9	93.0884	11,712.9	92.572	11,712.9	92.4103	11,712.9	89.324	11,712.9	89.2665	11,712.9	86.145	11,712.9	84.7577	11,712.9	83.8377	11,712.9	83.1753	11,712.9	79.2559	11,712.9	80.3284	11,712.9	71.0239	11,712.9	74.0561	11,712.9	63.3286	11,712.9	54.9238	11,712.9	59.2122	11,712.9	64.5595	11,712.9	57.9985	11,712.9	56.4234	11,712.9	57.62	11,712.9	63.9113	11,712.9	51.1975	11,712.9	72.5864	11,712.9	57.2799	11,712.9	62.2401	11,712.9	60.1851	11,712.9	53.771	11,712.9	60.9312	11,712.9	51.7577	11,712.9	56.1854	11,712.9	57.0391	11,712.9	57.7414	11,712.9	52.5466	11,712.9	54.4966	11,712.9	55.6987	11,712.9	52.7508
12,126	93.6084	12,126	92.8987	12,126	92.5271	12,126	88.8198	12,126	90.1399	12,126	86.0621	12,126	86.2482	12,126	83.4568	12,126	83.7415	12,126	78.0417	12,126	79.9424	12,126	67.8085	12,126	73.0391	12,126	66.898	12,126	72.3997	12,126	65.9827	12,126	70.9037	12,126	63.2753	12,126	58.1543	12,126	61.4913	12,126	66.8057	12,126	46.753	12,126	72.9153	12,126	61.0832	12,126	63.5192	12,126	61.6733	12,126	60.4182	12,126	64.3341	12,126	57.7973	12,126	60.6866	12,126	60.1472	12,126	63.2523	12,126	52.1818	12,126	59.4536	12,126	61.1206	12,126	50.3984
12,553.7	94.0732	12,553.7	92.6569	12,553.7	92.2708	12,553.7	87.9466	12,553.7	90.4068	12,553.7	86.5545	12,553.7	87.8588	12,553.7	82.1591	12,553.7	83.9677	12,553.7	73.9849	12,553.7	78.619	12,553.7	73.6352	12,553.7	71.8479	12,553.7	69.7488	12,553.7	77.2157	12,553.7	68.0095	12,553.7	73.6552	12,553.7	64.5169	12,553.7	67.6415	12,553.7	62.4792	12,553.7	68.4102	12,553.7	49.1816	12,553.7	75.0656	12,553.7	62.4914	12,553.7	63.2643	12,553.7	61.5751	12,553.7	60.411	12,553.7	63.8101	12,553.7	53.7604	12,553.7	61.2195	12,553.7	59.5858	12,553.7	64.6341	12,553.7	52.7676	12,553.7	61.3484	12,553.7	58.4963	12,553.7	51.5895
12,996.1	93.9802	12,996.1	91.8597	12,996.1	92.5863	12,996.1	88.3775	12,996.1	89.3357	12,996.1	85.9798	12,996.1	87.8106	12,996.1	80.0763	12,996.1	83.891	12,996.1	76.7558	12,996.1	75.386	12,996.1	74.5082	12,996.1	75.9436	12,996.1	72.356	12,996.1	77.57	12,996.1	66.8761	12,996.1	71.1779	12,996.1	63.7826	12,996.1	65.1298	12,996.1	63.9182	12,996.1	69.5895	12,996.1	54.0277	12,996.1	75.4443	12,996.1	61.3957	12,996.1	68.6332	12,996.1	59.1933	12,996.1	54.8818	12,996.1	62.4949	12,996.1	53.2827	12,996.1	61.7321	12,996.1	60.0659	12,996.1	64.7579	12,996.1	58.8944	12,996.1	61.4226	12,996.1	58.7667	12,996.1	50.8228
13,454.6	93.3113	13,454.6	92.1417	13,454.6	92.587	13,454.6	88.6792	13,454.6	89.7744	13,454.6	84.9457	13,454.6	88.0064	13,454.6	80.9671	13,454.6	82.2529	13,454.6	76.9873	13,454.6	75.6088	13,454.6	74.0359	13,454.6	75.6184	13,454.6	69.1655	13,454.6	77.0244	13,454.6	67.9104	13,454.6	66.3432	13,454.6	60.8379	13,454.6	64.2375	13,454.6	62.4273	13,454.6	70.5641	13,454.6	49.9514	13,454.6	74.3791	13,454.6	59.4909	13,454.6	66.9058	13,454.6	57.6228	13,454.6	59.006	13,454.6	60.9603	13,454.6	46.1379	13,454.6	57.8867	13,454.6	59.5499	13,454.6	64.0968	13,454.6	57.4217	13,454.6	60.9349	13,454.6	57.8096	13,454.6	52.9404
13,929.2	92.9084	13,929.2	92.1055	13,929.2	91.7923	13,929.2	88.6933	13,929.2	89.9872	13,929.2	85.0732	13,929.2	87.8823	13,929.2	81.5772	13,929.2	82.24	13,929.2	77.0711	13,929.2	79.0685	13,929.2	74.3963	13,929.2	77.6447	13,929.2	69.778	13,929.2	74.1405	13,929.2	67.5809	13,929.2	63.2856	13,929.2	61.4018	13,929.2	64.7588	13,929.2	62.1002	13,929.2	69.3519	13,929.2	53.0965	13,929.2	75.4446	13,929.2	60.1674	13,929.2	65.8511	13,929.2	56.8512	13,929.2	52.5241	13,929.2	60.4429	13,929.2	51.4051	13,929.2	55.8115	13,929.2	57.1926	13,929.2	63.4294	13,929.2	53.8572	13,929.2	62.8964	13,929.2	55.497	13,929.2	59.6746
14,419.9	91.8729	14,419.9	92.0761	14,419.9	90.8608	14,419.9	88.2548	14,419.9	88.9328	14,419.9	85.8093	14,419.9	86.0039	14,419.9	82.4469	14,419.9	81.7192	14,419.9	77.8024	14,419.9	80.4098	14,419.9	74.3026	14,419.9	78.3457	14,419.9	68.2583	14,419.9	70.8245	14,419.9	67.2286	14,419.9	63.5553	14,419.9	58.5181	14,419.9	61.584	14,419.9	61.3564	14,419.9	64.2631	14,419.9	52.9943	14,419.9	74.269	14,419.9	59.8647	14,419.9	65.5384	14,419.9	58.632	14,419.9	46.1649	14,419.9	59.5433	14,419.9	55.0578	14,419.9	56.3195	14,419.9	50.3474	14,419.9	60.9514	14,419.9	59.6411	14,419.9	63.5978	14,419.9	52.793	14,419.9	62.4958
14,928.2	90.4798	14,928.2	91.5832	14,928.2	89.1584	14,928.2	88.0085	14,928.2	88.5499	14,928.2	85.6381	14,928.2	84.716	14,928.2	83.3635	14,928.2	82.2198	14,928.2	77.4653	14,928.2	80.6063	14,928.2	73.0713	14,928.2	74.2624	14,928.2	66.2426	14,928.2	61.4523	14,928.2	65.9762	14,928.2	59.5117	14,928.2	60.6716	14,928.2	57.9948	14,928.2	61.069	14,928.2	56.1972	14,928.2	54.6484	14,928.2	72.0872	14,928.2	58.6602	14,928.2	64.5612	14,928.2	58.1394	14,928.2	40.4847	14,928.2	58.3438	14,928.2	53.8733	14,928.2	48.5935	14,928.2	52.4658	14,928.2	57.5473	14,928.2	60.3669	14,928.2	63.0435	14,928.2	56.219	14,928.2	65.2574
15,455.6	88.3752	15,455.6	90.5134	15,455.6	86.902	15,455.6	86.5988	15,455.6	87.2681	15,455.6	84.8838	15,455.6	84.6416	15,455.6	84.1206	15,455.6	83.1489	15,455.6	76.0112	15,455.6	79.4308	15,455.6	72.4702	15,455.6	66.017	15,455.6	68.0647	15,455.6	68.8339	15,455.6	65.5445	15,455.6	65.8306	15,455.6	63.1295	15,455.6	56.0795	15,455.6	60.7648	15,455.6	59.5233	15,455.6	56.5881	15,455.6	71.8546	15,455.6	58.0369	15,455.6	62.6573	15,455.6	56.5782	15,455.6	49.314	15,455.6	57.1466	15,455.6	50.2056	15,455.6	48.3933	15,455.6	59.0004	15,455.6	51.4748	15,455.6	62.097	15,455.6	60.7897	15,455.6	61.5791	15,455.6	66.1196
16,000.5	85.2856	16,000.5	88.1163	16,000.5	83.6874	16,000.5	85.2236	16,000.5	85.7223	16,000.5	83.9409	16,000.5	84.1855	16,000.5	83.5205	16,000.5	82.5303	16,000.5	74.7015	16,000.5	76.9696	16,000.5	74.6713	16,000.5	67.8988	16,000.5	68.7449	16,000.5	71.9341	16,000.5	63.7436	16,000.5	67.2323	16,000.5	62.8931	16,000.5	51.7267	16,000.5	57.6637	16,000.5	63.3468	16,000.5	55.9713	16,000.5	72.835	16,000.5	59.0605	16,000.5	62.9865	16,000.5	54.7101	16,000.5	53.6516	16,000.5	57.6215	16,000.5	55.2607	16,000.5	56.3681	16,000.5	55.8975	16,000.5	56.2512	16,000.5	63.8412	16,000.5	57.2243	16,000.5	59.5361	16,000.5	65.4754
16,564.5	82.7031	16,564.5	85.1017	16,564.5	82.6588	16,564.5	83.8713	16,564.5	84.2221	16,564.5	82.5396	16,564.5	84.2733	16,564.5	81.5407	16,564.5	82.3095	16,564.5	76.5053	16,564.5	73.9783	16,564.5	73.5821	16,564.5	71.833	16,564.5	68.4631	16,564.5	68.8065	16,564.5	61.3086	16,564.5	62.303	16,564.5	60.5273	16,564.5	61.6439	16,564.5	50.1568	16,564.5	63.114	16,564.5	53.3927	16,564.5	71.1441	16,564.5	56.7871	16,564.5	60.7094	16,564.5	50.2319	16,564.5	57.1608	16,564.5	56.4297	16,564.5	53.7518	16,564.5	57.3185	16,564.5	55.7244	16,564.5	53.467	16,564.5	62.6415	16,564.5	52.9566	16,564.5	58.9636	16,564.5	63.7337
17,148.9	87.6802	17,148.9	88.8139	17,148.9	86.923	17,148.9	85.5901	17,148.9	86.3523	17,148.9	82.5722	17,148.9	84.9472	17,148.9	80.8801	17,148.9	81.8684	17,148.9	73.3492	17,148.9	71.9871	17,148.9	67.1264	17,148.9	59.2307	17,148.9	58.1725	17,148.9	62.8457	17,148.9	55.3326	17,148.9	60.9964	17,148.9	52.4507	17,148.9	60.6654	17,148.9	51.879	17,148.9	62.8704	17,148.9	44.7433	17,148.9	73.0895	17,148.9	47.8207	17,148.9	59.4276	17,148.9	56.8801	17,148.9	45.7056	17,148.9	49.008	17,148.9	48.6744	17,148.9	48.4975	17,148.9	50.9659	17,148.9	56.1047	17,148.9	53.273	17,148.9	54.7557	17,148.9	54.3507	17,148.9	51.5115
17,752.4	87.2754	17,752.4	87.8185	17,752.4	86.6642	17,752.4	84.097	17,752.4	85.6633	17,752.4	81.3836	17,752.4	82.461	17,752.4	78.6145	17,752.4	80.4777	17,752.4	66.8356	17,752.4	70.0903	17,752.4	62.8086	17,752.4	63.1208	17,752.4	59.9169	17,752.4	60.1145	17,752.4	49.8254	17,752.4	61.229	17,752.4	50.5323	17,752.4	57.5844	17,752.4	52.4955	17,752.4	61.4343	17,752.4	46.0941	17,752.4	72.3574	17,752.4	51.4647	17,752.4	58.2274	17,752.4	58.0599	17,752.4	41.0442	17,752.4	35.2656	17,752.4	42.5262	17,752.4	54.7907	17,752.4	54.9099	17,752.4	58.6365	17,752.4	55.4817	17,752.4	56.8489	17,752.4	56.4374	17,752.4	55.8536
18,379.4	87.127	18,379.4	87.2741	18,379.4	86.1294	18,379.4	82.8842	18,379.4	85.1409	18,379.4	79.7758	18,379.4	82.0226	18,379.4	76.5855	18,379.4	78.9183	18,379.4	63.1915	18,379.4	66.1432	18,379.4	61.5076	18,379.4	62.4946	18,379.4	59.2838	18,379.4	54.871	18,379.4	52.4317	18,379.4	59.5666	18,379.4	48.3851	18,379.4	54.9408	18,379.4	52.4721	18,379.4	61.2245	18,379.4	46.6917	18,379.4	70.9514	18,379.4	51.0444	18,379.4	58.2406	18,379.4	57.6347	18,379.4	38.7815	18,379.4	35.8778	18,379.4	36.3228	18,379.4	53.2415	18,379.4	52.226	18,379.4	58.2651	18,379.4	51.3175	18,379.4	54.4275	18,379.4	55.1156	18,379.4	55.8149
19,026.9	86.9787	19,026.9	86.7735	19,026.9	85.8229	19,026.9	81.4292	19,026.9	83.7626	19,026.9	77.9069	19,026.9	80.4051	19,026.9	73.1749	19,026.9	76.2024	19,026.9	51.7961	19,026.9	64.9744	19,026.9	57.5538	19,026.9	59.2327	19,026.9	58.3721	19,026.9	58.23	19,026.9	52.1468	19,026.9	62.0737	19,026.9	43.271	19,026.9	54.0849	19,026.9	51.6798	19,026.9	59.2912	19,026.9	45.7329	19,026.9	69.5813	19,026.9	51.9596	19,026.9	57.0761	19,026.9	57.2325	19,026.9	49.6705	19,026.9	37.9899	19,026.9	46.6655	19,026.9	53.7143	19,026.9	50.5688	19,026.9	55.741	19,026.9	46.8332	19,026.9	50.0019	19,026.9	54.5303	19,026.9	55.2492
19,697.8	86.6274	19,697.8	85.8674	19,697.8	85.226	19,697.8	79.0431	19,697.8	82.5986	19,697.8	75.1047	19,697.8	78.3477	19,697.8	67.7435	19,697.8	70.9098	19,697.8	59.1358	19,697.8	54.4988	19,697.8	57.8796	19,697.8	59.6537	19,697.8	56.8784	19,697.8	56.8856	19,697.8	51.7029	19,697.8	55.9696	19,697.8	45.9968	19,697.8	50.5171	19,697.8	48.2346	19,697.8	55.6079	19,697.8	47.0007	19,697.8	66.7854	19,697.8	51.1453	19,697.8	55.6078	19,697.8	57.6176	19,697.8	53.1392	19,697.8	42.3435	19,697.8	50.5296	19,697.8	51.6892	19,697.8	53.9489	19,697.8	53.0968	19,697.8	44.7692	19,697.8	42.0124	19,697.8	56.0145	19,697.8	56.4945
19,999.5	86.1452	19,999.5	85.298	19,999.5	84.7008	19,999.5	77.5605	19,999.5	81.5862	19,999.5	73.4231	19,999.5	77.5963	19,999.5	63.5468	19,999.5	67.6249	19,999.5	61.9895	19,999.5	49.3891	19,999.5	58.4688	19,999.5	56.1748	19,999.5	56.1926	19,999.5	55.4671	19,999.5	52.4972	19,999.5	57.382	19,999.5	46.1174	19,999.5	54.0356	19,999.5	47.9238	19,999.5	51.4979	19,999.5	44.9383	19,999.5	64.4944	19,999.5	47.673	19,999.5	54.608	19,999.5	57.7884	19,999.5	53.7769	19,999.5	50.3522	19,999.5	55.8782	19,999.5	52.9505	19,999.5	55.6559	19,999.5	53.6536	19,999.5	43.7785	19,999.5	37.5519	19,999.5	55.7515	19,999.5	55.5486
