"Vertical Reflections"					
"Floor Reflection"		"Ceiling Reflection"		"Total Vertical Reflection"	
"Frequency [Hz]"	"Sound Pessure Level [dB]  / [2.83V 1m] "	"Frequency [Hz]"	"Sound Pessure Level [dB]  / [2.83V 1m] "	"Frequency [Hz]"	"Sound Pessure Level [dB]  / [2.83V 1m] "
20.5078	56.4739	20.5078	55.8856	20.5078	56.1897
21.9727	56.1806	21.9727	55.691	21.9727	55.9427
23.4375	58.3028	23.4375	57.7167	23.4375	58.0196
24.9023	58.5172	24.9023	57.9863	24.9023	58.2598
26.3672	59.5541	26.3672	58.9584	26.3672	59.2664
27.832	60.186	27.832	59.6423	27.832	59.9227
29.2969	60.8044	29.2969	60.216	29.2969	60.5201
30.7617	61.3745	30.7617	60.838	30.7617	61.1145
32.2266	62.3676	32.2266	61.7874	32.2266	62.0872
33.6914	63.0897	33.6914	62.4675	33.6914	62.7898
35.1562	63.4893	35.1562	62.8944	35.1562	63.202
36.6211	64.1008	36.6211	63.4934	36.6211	63.8077
38.0859	64.6626	38.0859	64.0336	38.0859	64.3595
39.5508	65.5452	39.5508	64.9502	39.5508	65.2579
41.0156	65.9373	41.0156	65.3415	41.0156	65.6496
42.4805	66.2388	42.4805	65.6118	42.4805	65.9366
43.9453	67.1963	43.9453	66.5847	43.9453	66.9012
45.4102	67.9503	45.4102	67.3628	45.4102	67.6665
46.875	68.349	46.875	67.7653	46.875	68.0669
48.3398	68.9173	48.3398	68.3361	48.3398	68.6364
51.2695	69.8498	51.2695	69.2523	51.2695	69.5614
52.7344	70.2862	52.7344	69.6706	52.7344	69.9893
54.1992	70.582	54.1992	69.9929	54.1992	70.2975
55.6641	71.1661	55.6641	70.5675	55.6641	70.8771
58.5938	72.2775	58.5938	71.692	58.5938	71.9946
60.0586	72.5221	60.0586	71.9316	60.0586	72.2369
62.9883	73.4113	62.9883	72.7859	62.9883	73.1099
64.4531	73.8041	64.4531	73.1702	64.4531	73.4987
67.3828	74.7605	67.3828	74.0938	67.3828	74.4399
68.8477	75.079	68.8477	74.4415	68.8477	74.7719
71.7773	75.7696	71.7773	75.1443	71.7773	75.4682
74.707	76.4084	74.707	75.8027	74.707	76.1161
77.6367	77.1756	77.6367	76.5635	77.6367	76.8804
79.1016	77.5481	79.1016	76.9261	79.1016	77.2482
82.0312	78.3191	82.0312	77.6885	82.0312	78.0153
84.9609	78.9656	84.9609	78.3193	84.9609	78.6544
87.8906	79.0842	87.8906	78.4378	87.8906	78.773
90.8203	80.1044	90.8203	79.5144	90.8203	79.8194
95.2148	81.0387	95.2148	80.4276	95.2148	80.7439
98.1445	81.7857	98.1445	81.1103	98.1445	81.4612
101.074	82.2268	101.074	81.533	101.074	81.8938
105.469	82.8329	105.469	82.2219	105.469	82.5381
108.398	83.4176	108.398	82.7854	108.398	83.113
112.793	84.0917	112.793	83.5478	112.793	83.8283
117.188	84.7523	117.188	84.1779	117.188	84.4746
120.117	85.1953	120.117	84.5904	120.117	84.9034
124.512	85.8536	124.512	85.2534	124.512	85.5639
128.906	86.2196	128.906	85.5689	128.906	85.9065
133.301	86.464	133.301	85.8513	133.301	86.1685
139.16	86.9206	139.16	86.2379	139.16	86.5927
143.555	87.3276	143.555	86.6629	143.555	87.0079
147.949	87.6769	147.949	87.0305	147.949	87.3657
153.809	87.634	153.809	87.0056	153.809	87.3312
159.668	87.5256	159.668	86.9248	159.668	87.2356
165.527	87.7971	165.527	87.1247	165.527	87.4739
171.387	87.8568	171.387	87.0922	171.387	87.4913
177.246	87.9778	177.246	86.995	177.246	87.5141
183.105	87.8329	183.105	86.9571	183.105	87.417
188.965	87.667	188.965	86.669	188.965	87.1966
196.289	87.7635	196.289	86.7283	196.289	87.2767
203.613	87.6727	203.613	86.5181	203.613	87.1336
210.938	87.6189	210.938	86.641	210.938	87.1574
218.262	87.3757	218.262	86.4191	218.262	86.9237
225.586	87.2316	225.586	86.2308	225.586	86.76
232.91	87.1301	232.91	85.9912	232.91	86.5979
241.699	86.9621	241.699	85.7723	241.699	86.4078
250.488	86.982	250.488	85.511	250.488	86.3085
259.277	86.881	259.277	85.5024	259.277	86.2462
268.066	86.6247	268.066	85.1214	268.066	85.9378
276.855	86.4131	276.855	84.826	276.855	85.6917
287.109	86.1276	287.109	84.7982	287.109	85.5136
297.363	86.2182	297.363	84.5078	297.363	85.4466
307.617	86.2318	307.617	84.5644	307.617	85.4777
319.336	86.0025	319.336	84.2812	319.336	85.2266
329.59	85.4243	329.59	83.8532	329.59	84.7094
341.309	85.6729	341.309	83.8744	341.309	84.8661
353.027	85.5334	353.027	83.7112	353.027	84.7172
366.211	85.5369	366.211	83.551	366.211	84.6565
379.395	85.6739	379.395	83.5342	379.395	84.7345
392.578	85.5965	392.578	83.2906	392.578	84.5948
405.762	85.6253	405.762	83.4426	405.762	84.6696
420.41	85.8684	420.41	83.8935	420.41	84.9923
435.059	85.7203	435.059	83.4652	435.059	84.7375
451.172	86.1598	451.172	83.7391	451.172	85.1159
465.82	85.6851	465.82	83.4617	465.82	84.7142
483.398	86.0018	483.398	83.6642	483.398	84.9884
499.512	86.1921	499.512	83.6395	499.512	85.1007
517.09	86.0547	517.09	83.9363	517.09	85.1234
536.133	85.5734	536.133	83.0618	536.133	84.4967
555.176	86.1079	555.176	82.9938	555.176	84.8242
574.219	86.5132	574.219	82.5155	574.219	84.9589
594.727	86.4746	594.727	82.3837	594.727	84.894
615.234	86.1144	615.234	82.9076	615.234	84.8005
637.207	85.7032	637.207	82.6604	637.207	84.443
659.18	84.7671	659.18	82.1519	659.18	83.6534
682.617	84.6692	682.617	81.3856	682.617	83.3306
707.52	84.737	707.52	82.3546	707.52	83.7072
732.422	85.4782	732.422	83.6905	732.422	84.6757
757.324	87.3117	757.324	84.4082	757.324	86.0982
785.156	87.0687	785.156	85.7606	785.156	86.4637
811.523	87.3112	811.523	85.8795	811.523	86.6541
840.82	87.2754	840.82	85.661	840.82	86.5428
870.117	86.8363	870.117	85.3372	870.117	86.1511
900.879	87.3258	900.879	85.1601	900.879	86.3765
933.105	86.835	933.105	85.1784	933.105	86.0852
965.332	86.7278	965.332	85.1489	965.332	86.0097
1,000.49	86.7483	1,000.49	85.8932	1,000.49	86.3418
1,035.64	86.4838	1,035.64	85.1076	1,035.64	85.85
1,072.27	86.0789	1,072.27	84.8995	1,072.27	85.5291
1,108.89	85.4232	1,108.89	84.6719	1,108.89	85.0638
1,148.44	84.843	1,148.44	84.5163	1,148.44	84.6827
1,189.45	84.1724	1,189.45	83.6231	1,189.45	83.9064
1,230.47	84.7938	1,230.47	85.2781	1,230.47	85.0427
1,274.41	85.2197	1,274.41	86.8044	1,274.41	86.0839
1,319.82	85.5434	1,319.82	86.7954	1,319.82	86.2144
1,366.7	85.2848	1,366.7	86.2833	1,366.7	85.8126
1,413.57	85.1896	1,413.57	85.3315	1,413.57	85.2611
1,463.38	82.8365	1,463.38	85.1542	1,463.38	84.1482
1,516.11	81.7046	1,516.11	85.1769	1,516.11	83.7789
1,568.85	80.289	1,568.85	84.5538	1,568.85	82.9251
1,624.51	81.09	1,624.51	84.181	1,624.51	82.9048
1,681.64	80.9549	1,681.64	84.4681	1,681.64	83.0575
1,741.7	79.4957	1,741.7	82.0189	1,741.7	80.938
1,803.22	80.3451	1,803.22	83.3302	1,803.22	82.0892
1,866.21	79.4348	1,866.21	81.2863	1,866.21	80.4585
1,932.13	79.3638	1,932.13	80.7054	1,932.13	80.0862
1,999.51	79.424	1,999.51	81.8395	1,999.51	80.7976
2,069.82	78.6742	2,069.82	79.5066	2,069.82	79.1103
2,143.07	79.0905	2,143.07	77.8264	2,143.07	78.5043
2,219.24	78.7015	2,219.24	73.9867	2,219.24	76.9547
2,296.88	78.6962	2,296.88	73.566	2,296.88	76.8483
2,378.91	76.1305	2,378.91	68.726	2,378.91	73.8456
2,462.4	78.4497	2,462.4	70.3407	2,462.4	76.0635
2,548.83	80.1811	2,548.83	71.4944	2,548.83	77.7219
2,639.65	80.4836	2,639.65	73.1003	2,639.65	78.202
2,731.93	80.1213	2,731.93	75.2685	2,731.93	78.3401
2,828.61	80.642	2,828.61	75.5803	2,828.61	78.8102
2,928.22	80.8094	2,928.22	77.1766	2,928.22	79.3623
3,030.76	81.1562	3,030.76	78.6927	3,030.76	80.0968
3,137.7	81.5568	3,137.7	80.4018	3,137.7	81.0176
3,249.02	80.8362	3,249.02	81.0276	3,249.02	80.9329
3,363.28	79.8888	3,363.28	82.1803	3,363.28	81.184
3,481.93	79.5822	3,481.93	83.2383	3,481.93	81.7841
3,604.98	77.9083	3,604.98	83.8911	3,604.98	81.8575
3,732.42	77.9327	3,732.42	83.5914	3,732.42	81.625
3,864.26	79.6128	3,864.26	83.2187	3,864.26	81.7797
4,000.49	80.265	4,000.49	83.3111	4,000.49	82.0498
4,141.11	81.4568	4,141.11	84.8154	4,141.11	83.453
4,287.6	82.2586	4,287.6	86.3359	4,287.6	84.7592
4,438.48	83.3181	4,438.48	85.8843	4,438.48	84.788
4,595.21	84.0728	4,595.21	84.6514	4,595.21	84.3717
4,756.35	87.3727	4,756.35	83.164	4,756.35	85.7594
4,924.8	88.8306	4,924.8	84.1246	4,924.8	87.0861
5,097.66	89.0273	5,097.66	85.046	5,097.66	87.4777
5,277.83	89.3645	5,277.83	84.1676	5,277.83	87.501
5,463.87	90.1225	5,463.87	83.2291	5,463.87	87.9202
5,657.23	89.46	5,657.23	82.527	5,657.23	87.251
5,856.45	88.7335	5,856.45	82.5796	5,856.45	86.6659
6,062.99	87.9872	6,062.99	82.598	6,062.99	86.0798
6,276.86	86.5415	6,276.86	82.4367	6,276.86	84.957
6,498.05	85.9342	6,498.05	81.3299	6,498.05	84.2156
6,726.56	85.0593	6,726.56	81.6796	6,726.56	83.6902
6,963.87	84.1044	6,963.87	83.7469	6,963.87	83.9293
7,209.96	83.307	7,209.96	83.5713	7,209.96	83.4412
7,464.84	83.1567	7,464.84	81.7883	7,464.84	82.5262
7,727.05	82.7815	7,727.05	83.1809	7,727.05	82.9858
7,999.51	82.6979	7,999.51	82.8646	7,999.51	82.7821
8,282.23	84.5987	8,282.23	80.1151	8,282.23	82.9115
8,573.73	85.1012	8,573.73	80.6385	8,573.73	83.4195
8,876.95	85.4603	8,876.95	80.9516	8,876.95	83.7665
9,188.96	85.6872	9,188.96	81.0501	9,188.96	83.9602
9,514.16	85.954	9,514.16	81.2514	9,514.16	84.2103
9,849.61	86.8273	9,849.61	80.7987	9,849.61	84.7845
10,196.8	87.4346	10,196.8	80.8846	10,196.8	85.2925
10,555.7	87.3815	10,555.7	80.8085	10,555.7	85.2353
10,927.7	86.8749	10,927.7	80.3518	10,927.7	84.7377
11,313	86.4882	11,313	80.0705	11,313	84.3705
11,712.9	86.5367	11,712.9	80.5293	11,712.9	84.4981
12,126	87.51	12,126	79.8736	12,126	85.1902
12,553.7	88.1476	12,553.7	78.503	12,553.7	85.5848
12,996.1	87.5516	12,996.1	77.718	12,996.1	84.9706
13,454.6	87.6574	13,454.6	78.2443	13,454.6	85.1177
13,929.2	87.7297	13,929.2	78.6972	13,929.2	85.2307
14,419.9	86.4646	14,419.9	79.4265	14,419.9	84.2381
14,928.2	85.9441	14,928.2	79.8977	14,928.2	83.8977
15,455.6	85.3604	15,455.6	80.2234	15,455.6	83.5109
16,000.5	84.3386	16,000.5	79.7584	16,000.5	82.6262
16,564.5	83.6926	16,564.5	78.4535	16,564.5	81.8193
17,148.9	84.7611	17,148.9	76.9679	17,148.9	82.4186
17,752.4	83.3996	17,752.4	74.2281	17,752.4	80.8855
18,379.4	82.741	18,379.4	72.1357	18,379.4	80.093
19,026.9	81.1318	19,026.9	68.5518	19,026.9	78.3549
19,697.8	79.4217	19,697.8	63.9099	19,697.8	76.5318
19,999.5	78.3962	19,999.5	61.806	19,999.5	75.4801
