"Early Reflections"											
"Floor Bounce"		"Ceiling Bounce"		"Front Wall Bounce"		"Side Wall Bounce"		"Rear Wall Bounce"		"Total Early Reflection"	
"Frequency [Hz]"	"Sound Pessure Level [dB]  / [2.83V 1m] "	"Frequency [Hz]"	"Sound Pessure Level [dB]  / [2.83V 1m] "	"Frequency [Hz]"	"Sound Pessure Level [dB]  / [2.83V 1m] "	"Frequency [Hz]"	"Sound Pessure Level [dB]  / [2.83V 1m] "	"Frequency [Hz]"	"Sound Pessure Level [dB]  / [2.83V 1m] "	"Frequency [Hz]"	"Sound Pessure Level [dB]  / [2.83V 1m] "
20.5078	53.2197	20.5078	52.2186	20.5078	52.9386	20.5078	52.4544	20.5078	51.3159	20.5078	52.5458
21.9727	56.2281	21.9727	55.5496	21.9727	56.064	21.9727	55.7944	21.9727	55.1066	21.9727	55.821
23.4375	55.9269	23.4375	55.3078	23.4375	55.7626	23.4375	55.5525	23.4375	55.0316	23.4375	55.5714
24.9023	56.4808	24.9023	55.7105	24.9023	56.228	24.9023	56.0448	24.9023	55.6198	24.9023	56.0642
26.3672	57.1037	26.3672	56.4278	26.3672	56.8755	26.3672	56.774	26.3672	56.5182	26.3672	56.7741
27.832	58.0188	27.832	57.3939	27.832	57.8172	27.832	57.6578	27.832	57.3447	27.832	57.6805
29.2969	59.0858	29.2969	58.3183	29.2969	58.8433	29.2969	58.6513	29.2969	58.2792	29.2969	58.6787
30.7617	59.8448	30.7617	59.21	30.7617	59.6474	30.7617	59.461	30.7617	59.0807	30.7617	59.4883
32.2266	60.4699	32.2266	59.7663	32.2266	60.2356	32.2266	60.0814	32.2266	59.8094	32.2266	60.105
33.6914	61.2992	33.6914	60.6168	33.6914	61.0767	33.6914	60.9025	33.6914	60.5804	33.6914	60.9305
35.1562	62.2144	35.1562	61.551	35.1562	61.9979	35.1562	61.8427	35.1562	61.5643	35.1562	61.8663
36.6211	62.7887	36.6211	62.0655	36.6211	62.5584	36.6211	62.3746	36.6211	62.0461	36.6211	62.4042
38.0859	63.7968	38.0859	63.1131	38.0859	63.5746	38.0859	63.401	38.0859	63.096	38.0859	63.4303
39.5508	64.3799	39.5508	63.6689	39.5508	64.1338	39.5508	64.0313	39.5508	63.8525	39.5508	64.0407
41.0156	63.3689	41.0156	62.57	41.0156	63.1065	41.0156	63.0934	41.0156	62.9752	41.0156	63.0593
42.4805	64.6606	42.4805	63.9786	42.4805	64.4683	42.4805	64.2575	42.4805	63.8462	42.4805	64.2878
43.9453	65.459	43.9453	64.7742	43.9453	65.2603	43.9453	65.0432	43.9453	64.6183	43.9453	65.0766
45.4102	66.1363	45.4102	65.4092	45.4102	65.9119	45.4102	65.7196	45.4102	65.3457	45.4102	65.747
46.875	66.7417	46.875	66.0761	46.875	66.5227	46.875	66.373	46.875	66.1148	46.875	66.3963
48.3398	67.2918	48.3398	66.6587	48.3398	67.0811	48.3398	66.9486	48.3398	66.7304	48.3398	66.9691
51.2695	68.4018	51.2695	67.7394	51.2695	68.1892	51.2695	68.0369	51.2695	67.8007	51.2695	68.0628
52.7344	68.8672	52.7344	68.2015	52.7344	68.6562	52.7344	68.5107	52.7344	68.2701	52.7344	68.5319
54.1992	69.3415	54.1992	68.6757	54.1992	69.1295	54.1992	68.9881	54.1992	68.763	54.1992	69.0091
55.6641	69.9055	55.6641	69.2306	55.6641	69.6893	55.6641	69.5286	55.6641	69.2612	55.6641	69.5549
58.5938	70.7901	58.5938	70.1119	58.5938	70.5637	58.5938	70.4161	58.5938	70.218	58.5938	70.4453
60.0586	71.2684	60.0586	70.5918	60.0586	71.0477	60.0586	70.892	60.0586	70.6603	60.0586	70.9205
62.9883	72.119	62.9883	71.4308	62.9883	71.8964	62.9883	71.7313	62.9883	71.4836	62.9883	71.762
64.4531	72.5606	64.4531	71.8567	64.4531	72.337	64.4531	72.1593	64.4531	71.8806	64.4531	72.1916
67.3828	73.4172	67.3828	72.6806	67.3828	73.183	67.3828	73.0116	67.3828	72.7253	67.3828	73.0389
68.8477	73.7887	68.8477	73.0859	68.8477	73.5568	68.8477	73.4143	68.8477	73.1885	68.8477	73.4365
71.7773	74.5666	71.7773	73.8638	71.7773	74.3388	71.7773	74.1813	71.7773	73.9648	71.7773	74.2112
74.707	75.3462	74.707	74.6618	74.707	75.1284	74.707	74.9625	74.707	74.7047	74.707	74.9918
77.6367	76.0508	77.6367	75.3699	77.6367	75.8298	77.6367	75.6719	77.6367	75.4276	77.6367	75.6997
79.1016	76.4087	79.1016	75.7183	79.1016	76.1842	79.1016	76.026	79.1016	75.7866	79.1016	76.0543
82.0312	77.1223	82.0312	76.4134	82.0312	76.893	82.0312	76.724	82.0312	76.4785	82.0312	76.7563
84.9609	77.795	84.9609	77.0646	84.9609	77.5617	84.9609	77.3872	84.9609	77.1116	84.9609	77.4177
87.8906	78.2067	87.8906	77.5341	87.8906	77.9813	87.8906	77.8594	87.8906	77.7008	87.8906	77.8802
90.8203	78.8861	90.8203	78.1948	90.8203	78.655	90.8203	78.507	90.8203	78.3491	90.8203	78.5405
95.2148	79.7525	95.2148	79.0558	95.2148	79.5393	95.2148	79.3745	95.2148	79.1739	95.2148	79.4071
98.1445	80.3807	98.1445	79.708	98.1445	80.1764	98.1445	79.9865	98.1445	79.7663	98.1445	80.0302
101.074	80.9579	101.074	80.2867	101.074	80.7675	101.074	80.5517	101.074	80.258	101.074	80.5977
105.469	81.5331	105.469	80.7458	105.469	81.2862	105.469	81.1256	105.469	80.9225	105.469	81.154
108.398	82.0331	108.398	81.2275	108.398	81.7663	108.398	81.5904	108.398	81.4109	108.398	81.6318
112.793	82.6254	112.793	81.8166	112.793	82.3774	112.793	82.2145	112.793	82.0627	112.793	82.2477
117.188	83.2591	117.188	82.5055	117.188	83.0304	117.188	82.8199	117.188	82.6587	117.188	82.8777
120.117	83.6749	120.117	82.8559	120.117	83.4242	120.117	83.1846	120.117	83.0177	120.117	83.2548
124.512	84.2605	124.512	83.4454	124.512	84.0216	124.512	83.7348	124.512	83.4477	124.512	83.814
128.906	84.6257	128.906	83.9116	128.906	84.4724	128.906	84.1327	128.906	83.6655	128.906	84.2114
133.301	84.755	133.301	84.0095	133.301	84.5567	133.301	84.3023	133.301	84.0139	133.301	84.3626
139.16	85.045	139.16	84.1968	139.16	84.8044	139.16	84.5694	139.16	84.3755	139.16	84.6289
143.555	85.2742	143.555	84.3207	143.555	85.0108	143.555	84.7443	143.555	84.5356	143.555	84.8127
147.949	85.6661	147.949	84.6309	147.949	85.3907	147.949	85.0292	147.949	84.6915	147.949	85.1273
153.809	85.7684	153.809	84.8483	153.809	85.5513	153.809	85.1587	153.809	84.7389	153.809	85.2629
159.668	85.7272	159.668	84.9748	159.668	85.5837	159.668	85.2364	159.668	84.8058	159.668	85.3163
165.527	85.6498	165.527	84.7642	165.527	85.4393	165.527	85.1466	165.527	84.9323	165.527	85.2226
171.387	85.8244	171.387	84.8605	171.387	85.5443	171.387	85.1696	171.387	84.8119	171.387	85.281
177.246	85.7129	177.246	84.7954	177.246	85.4959	177.246	85.1601	177.246	84.9271	177.246	85.2546
183.105	85.8001	183.105	84.7444	183.105	85.54	183.105	85.0981	183.105	84.8026	183.105	85.2368
188.965	85.5162	188.965	84.6155	188.965	85.3809	188.965	84.9447	188.965	84.6149	188.965	85.0638
196.289	85.4676	196.289	84.5794	196.289	85.3149	196.289	84.8308	196.289	84.4751	196.289	84.9777
203.613	85.4864	203.613	84.4389	203.613	85.2585	203.613	84.7516	203.613	84.3889	203.613	84.9108
210.938	85.323	210.938	84.3724	210.938	85.1886	210.938	84.6422	210.938	84.1477	210.938	84.7971
218.262	85.0273	218.262	84.2957	218.262	84.9164	218.262	84.4188	218.262	84.0063	218.262	84.5739
225.586	84.7506	225.586	84.0159	225.586	84.6721	225.586	84.1951	225.586	83.8884	225.586	84.3423
232.91	84.6234	232.91	83.6944	232.91	84.5129	232.91	84.024	232.91	83.7602	232.91	84.1689
241.699	84.7028	241.699	83.3755	241.699	84.384	241.699	83.712	241.699	83.3866	241.699	83.9556
250.488	84.75	250.488	83.5038	250.488	84.4858	250.488	83.7315	250.488	83.1488	250.488	83.9894
259.277	84.6999	259.277	83.3664	259.277	84.4557	259.277	83.627	259.277	82.9153	259.277	83.8996
268.066	84.2368	268.066	82.6803	268.066	84.0597	268.066	83.3506	268.066	82.6405	268.066	83.5208
276.855	84.2244	276.855	82.9417	276.855	84.0704	276.855	83.1922	276.855	82.5902	276.855	83.4856
287.109	83.8042	287.109	82.6232	287.109	83.7044	287.109	83.1652	287.109	82.7038	287.109	83.2881
297.363	83.8673	297.363	82.6334	297.363	83.729	297.363	82.6954	297.363	82.3826	297.363	83.1031
307.617	83.9379	307.617	82.4273	307.617	83.5579	307.617	82.7795	307.617	82.0393	307.617	83.0369
319.336	83.9156	319.336	82.0853	319.336	83.6638	319.336	82.4578	319.336	81.6523	319.336	82.8843
329.59	83.3866	329.59	81.7198	329.59	83.2123	329.59	82.3198	329.59	81.5364	329.59	82.5713
341.309	83.5515	341.309	81.8519	341.309	83.3016	341.309	82.0911	341.309	81.509	341.309	82.5522
353.027	83.3917	353.027	81.7851	353.027	83.3137	353.027	82.167	353.027	81.0853	353.027	82.5165
366.211	83.3146	366.211	81.8049	366.211	83.2067	366.211	81.9943	366.211	81.1882	366.211	82.4209
379.395	83.678	379.395	81.6595	379.395	83.3669	379.395	82.0429	379.395	81.0769	379.395	82.5194
392.578	83.5116	392.578	81.4664	392.578	83.2952	392.578	81.9766	392.578	80.8472	392.578	82.4111
405.762	83.0772	405.762	81.372	405.762	83.0447	405.762	81.6908	405.762	80.5811	405.762	82.135
420.41	83.3649	420.41	81.5714	420.41	83.3346	420.41	81.6745	420.41	80.4709	420.41	82.28
435.059	83.291	435.059	81.4417	435.059	83.2678	435.059	81.6348	435.059	80.3825	435.059	82.2135
451.172	83.7093	451.172	81.5235	451.172	83.6065	451.172	81.832	451.172	80.2289	451.172	82.4568
465.82	83.4482	465.82	81.0729	465.82	83.5219	465.82	81.8703	465.82	80.2203	465.82	82.3598
483.398	83.4663	483.398	81.3898	483.398	83.7284	483.398	82.057	483.398	80.1222	483.398	82.5208
499.512	83.7645	499.512	81.4896	499.512	83.6857	499.512	81.8895	499.512	80.1891	499.512	82.5066
517.09	83.5317	517.09	81.8488	517.09	83.8416	517.09	81.8879	517.09	79.9047	517.09	82.5426
536.133	83.3305	536.133	81.0911	536.133	83.6436	536.133	81.7841	536.133	79.6207	536.133	82.3185
555.176	83.4995	555.176	81.2865	555.176	83.9596	555.176	82.1803	555.176	79.7188	555.176	82.6174
574.219	83.9569	574.219	81.4661	574.219	83.9056	574.219	82.0594	574.219	79.6934	574.219	82.6385
594.727	83.5362	594.727	80.98	594.727	83.8507	594.727	81.9308	594.727	79.4531	594.727	82.4555
615.234	83.9168	615.234	81.2485	615.234	84.2912	615.234	82.478	615.234	79.6245	615.234	82.8951
637.207	84.0389	637.207	81.377	637.207	84.0545	637.207	82.5205	637.207	79.7988	637.207	82.8624
659.18	83.7423	659.18	81.4042	659.18	83.9934	659.18	82.2807	659.18	79.5909	659.18	82.7024
682.617	84.1756	682.617	81.1122	682.617	84.4275	682.617	82.6595	682.617	79.7528	682.617	83.0441
707.52	84.1704	707.52	81.4988	707.52	84.1836	707.52	82.8103	707.52	79.8054	707.52	83.0423
732.422	83.5662	732.422	81.0563	732.422	83.8571	732.422	82.3042	732.422	79.2128	732.422	82.5861
757.324	83.9868	757.324	80.9669	757.324	83.9838	757.324	82.6414	757.324	79.8718	757.324	82.8454
785.156	84.6671	785.156	82.448	785.156	85.0086	785.156	83.7011	785.156	80.6571	785.156	83.8558
811.523	84.9184	811.523	82.5584	811.523	85.1683	811.523	84.0979	811.523	81.0944	811.523	84.1291
840.82	84.7939	840.82	82.8024	840.82	84.4757	840.82	83.4266	840.82	80.8705	840.82	83.6363
870.117	84.3303	870.117	82.6531	870.117	84.617	870.117	83.4892	870.117	81.254	870.117	83.6506
900.879	84.4569	900.879	82.2666	900.879	84.767	900.879	83.5062	900.879	80.8563	900.879	83.6664
933.105	83.8467	933.105	82.0511	933.105	84.5658	933.105	83.2696	933.105	81.2368	933.105	83.4344
965.332	83.8483	965.332	82.2036	965.332	84.5838	965.332	83.058	965.332	80.7962	965.332	83.3475
1,000.49	83.8573	1,000.49	82.1352	1,000.49	83.9336	1,000.49	82.3968	1,000.49	80.612	1,000.49	82.8688
1,035.64	83.7569	1,035.64	81.5425	1,035.64	84.1078	1,035.64	81.9184	1,035.64	79.5928	1,035.64	82.6369
1,072.27	83.5832	1,072.27	81.29	1,072.27	83.7666	1,072.27	81.0853	1,072.27	79.3927	1,072.27	82.1844
1,108.89	83.0503	1,108.89	80.8103	1,108.89	83.727	1,108.89	80.7579	1,108.89	78.2847	1,108.89	81.8828
1,148.44	82.4581	1,148.44	80.902	1,148.44	83.4494	1,148.44	80.27	1,148.44	77.5741	1,148.44	81.5115
1,189.45	82.652	1,189.45	79.5825	1,189.45	83.2148	1,189.45	80.1151	1,189.45	77.3812	1,189.45	81.2704
1,230.47	82.0875	1,230.47	79.5714	1,230.47	83.8039	1,230.47	80.3696	1,230.47	77.8959	1,230.47	81.5455
1,274.41	82.7268	1,274.41	79.7857	1,274.41	84.3771	1,274.41	80.2407	1,274.41	78.1038	1,274.41	81.8885
1,319.82	82.9551	1,319.82	80.9835	1,319.82	84.5634	1,319.82	80.0823	1,319.82	76.7571	1,319.82	82.0117
1,366.7	82.9872	1,366.7	80.5184	1,366.7	84.6889	1,366.7	80.7596	1,366.7	76.2697	1,366.7	82.1987
1,413.57	83.0966	1,413.57	80.3145	1,413.57	84.2878	1,413.57	80.2102	1,413.57	76.5302	1,413.57	81.8686
1,463.38	82.8668	1,463.38	79.5086	1,463.38	83.5354	1,463.38	78.9829	1,463.38	74.3765	1,463.38	81.0377
1,516.11	82.6852	1,516.11	79.8882	1,516.11	82.7151	1,516.11	78.5727	1,516.11	74.0272	1,516.11	80.5527
1,568.85	81.4717	1,568.85	78.0869	1,568.85	82.2855	1,568.85	78.3367	1,568.85	72.6109	1,568.85	79.8908
1,624.51	80.7242	1,624.51	77.7255	1,624.51	82.3649	1,624.51	77.9996	1,624.51	72.2138	1,624.51	79.6878
1,681.64	80.3558	1,681.64	76.4215	1,681.64	82.45	1,681.64	78.154	1,681.64	72.3749	1,681.64	79.6403
1,741.7	79.9125	1,741.7	74.6302	1,741.7	82.6936	1,741.7	78.3327	1,741.7	71.3658	1,741.7	79.6613
1,803.22	79.9064	1,803.22	71.6131	1,803.22	82.0515	1,803.22	77.7552	1,803.22	72.0977	1,803.22	79.0823
1,866.21	79.6688	1,866.21	70.5611	1,866.21	81.1585	1,866.21	77.3828	1,866.21	70.8018	1,866.21	78.426
1,932.13	78.7127	1,932.13	67.7578	1,932.13	80.3081	1,932.13	76.2038	1,932.13	69.883	1,932.13	77.4304
1,999.51	77.1762	1,999.51	68.7035	1,999.51	80.7805	1,999.51	76.6198	1,999.51	69.7761	1,999.51	77.6237
2,069.82	76.8597	2,069.82	66.8661	2,069.82	81.551	2,069.82	76.9904	2,069.82	69.0123	2,069.82	78.1152
2,143.07	77.3037	2,143.07	62.9124	2,143.07	81.4454	2,143.07	76.6817	2,143.07	70.8651	2,143.07	78.0143
2,219.24	77.1149	2,219.24	65.236	2,219.24	80.423	2,219.24	75.8176	2,219.24	71.1498	2,219.24	77.1755
2,296.88	76.111	2,296.88	68.6233	2,296.88	80.8	2,296.88	75.9634	2,296.88	70.871	2,296.88	77.3651
2,378.91	72.7269	2,378.91	69.6495	2,378.91	81.5655	2,378.91	76.2986	2,378.91	69.4758	2,378.91	77.7275
2,462.4	74.1803	2,462.4	69.1019	2,462.4	83.3872	2,462.4	78.106	2,462.4	71.5841	2,462.4	79.5044
2,548.83	75.7413	2,548.83	70.0971	2,548.83	83.1927	2,548.83	78.2262	2,548.83	71.5598	2,548.83	79.4881
2,639.65	77.4624	2,639.65	72.2766	2,639.65	82.4055	2,639.65	77.3625	2,639.65	71.0061	2,639.65	78.9007
2,731.93	78.1199	2,731.93	74.4553	2,731.93	81.9397	2,731.93	76.6092	2,731.93	70.6441	2,731.93	78.5577
2,828.61	78.4261	2,828.61	74.9803	2,828.61	82.2323	2,828.61	76.9928	2,828.61	71.7905	2,828.61	78.9022
2,928.22	78.6413	2,928.22	75.4728	2,928.22	82.635	2,928.22	78.3997	2,928.22	72.4419	2,928.22	79.5678
3,030.76	78.592	3,030.76	76.0318	3,030.76	82.6506	3,030.76	79.3703	3,030.76	73.2632	3,030.76	79.9235
3,137.7	78.5715	3,137.7	78.1052	3,137.7	82.1282	3,137.7	79.4267	3,137.7	73.5577	3,137.7	79.8243
3,249.02	78.5777	3,249.02	78.6729	3,249.02	81.2652	3,249.02	79.3933	3,249.02	73.0983	3,249.02	79.4766
3,363.28	78.9347	3,363.28	78.4578	3,363.28	81.647	3,363.28	79.4608	3,363.28	73.4985	3,363.28	79.6853
3,481.93	79.8322	3,481.93	78.6948	3,481.93	81.6051	3,481.93	80.2661	3,481.93	74.2022	3,481.93	80.1087
3,604.98	80.2039	3,604.98	78.6709	3,604.98	82.4146	3,604.98	80.8618	3,604.98	74.3558	3,604.98	80.7034
3,732.42	80.2417	3,732.42	78.964	3,732.42	83.5533	3,732.42	81.3289	3,732.42	75.1376	3,732.42	81.4083
3,864.26	80.9257	3,864.26	79.9861	3,864.26	83.0112	3,864.26	80.659	3,864.26	73.169	3,864.26	81.0311
4,000.49	79.9172	4,000.49	80.814	4,000.49	83.222	4,000.49	80.6286	4,000.49	72.8509	4,000.49	81.0873
4,141.11	80.2198	4,141.11	80.8859	4,141.11	83.4494	4,141.11	81.1191	4,141.11	73.4278	4,141.11	81.4041
4,287.6	80.0067	4,287.6	81.6909	4,287.6	82.3548	4,287.6	81.1662	4,287.6	73.2748	4,287.6	81.0602
4,438.48	80.4143	4,438.48	81.2445	4,438.48	82.2489	4,438.48	81.474	4,438.48	72.5481	4,438.48	81.1169
4,595.21	80.9402	4,595.21	79.4436	4,595.21	82.4134	4,595.21	80.805	4,595.21	72.6984	4,595.21	80.7865
4,756.35	80.6652	4,756.35	80.6285	4,756.35	83.3748	4,756.35	81.0943	4,756.35	73.5474	4,756.35	81.3811
4,924.8	81.7396	4,924.8	79.5353	4,924.8	82.8549	4,924.8	81.537	4,924.8	75.0589	4,924.8	81.3999
5,097.66	82.2913	5,097.66	79.9056	5,097.66	82.9177	5,097.66	80.4106	5,097.66	74.0018	5,097.66	81.0969
5,277.83	82.6673	5,277.83	80.0039	5,277.83	83.5625	5,277.83	80.4522	5,277.83	72.4717	5,277.83	81.4221
5,463.87	82.4147	5,463.87	79.5819	5,463.87	82.7728	5,463.87	80.1301	5,463.87	73.686	5,463.87	80.931
5,657.23	81.9987	5,657.23	79.701	5,657.23	82.2591	5,657.23	79.8362	5,657.23	73.8197	5,657.23	80.5753
5,856.45	80.2142	5,856.45	80.3569	5,856.45	81.174	5,856.45	78.9613	5,856.45	71.9985	5,856.45	79.6396
6,062.99	81.8688	6,062.99	80.6063	6,062.99	81.7768	6,062.99	79.7928	6,062.99	68.7732	6,062.99	80.3775
6,276.86	83.4056	6,276.86	81.0657	6,276.86	81.5677	6,276.86	79.4178	6,276.86	68.2278	6,276.86	80.5328
6,498.05	83.3138	6,498.05	80.0453	6,498.05	82.4548	6,498.05	79.929	6,498.05	70.1791	6,498.05	80.893
6,726.56	82.0529	6,726.56	79.7836	6,726.56	82.3711	6,726.56	79.7112	6,726.56	69.5307	6,726.56	80.5303
6,963.87	81.8739	6,963.87	79.0148	6,963.87	82.22	6,963.87	79.6875	6,963.87	69.8972	6,963.87	80.3649
7,209.96	82.1505	7,209.96	79.0615	7,209.96	82.5774	7,209.96	79.6845	7,209.96	70.6212	7,209.96	80.5714
7,464.84	82.3745	7,464.84	79.241	7,464.84	82.3626	7,464.84	78.8368	7,464.84	70.2	7,464.84	80.2792
7,727.05	81.9331	7,727.05	79.0197	7,727.05	82.9073	7,727.05	79.1829	7,727.05	68.8312	7,727.05	80.5133
7,999.51	81.6624	7,999.51	79.001	7,999.51	82.3873	7,999.51	78.3185	7,999.51	69.371	7,999.51	79.9935
8,282.23	81.1409	8,282.23	78.5283	8,282.23	82.442	8,282.23	78.3683	8,282.23	69.4421	8,282.23	79.9078
8,573.73	81.8064	8,573.73	78.24	8,573.73	82.2319	8,573.73	78.1961	8,573.73	68.3572	8,573.73	79.8396
8,876.95	82.1813	8,876.95	77.8325	8,876.95	82.9842	8,876.95	77.992	8,876.95	67.4709	8,876.95	80.1896
9,188.96	81.3778	9,188.96	77.2683	9,188.96	82.4468	9,188.96	77.5701	9,188.96	66.8316	9,188.96	79.6298
9,514.16	80.1833	9,514.16	77.1312	9,514.16	82.8586	9,514.16	77.2812	9,514.16	66.0476	9,514.16	79.5915
9,849.61	79.347	9,849.61	76.7287	9,849.61	82.8164	9,849.61	76.9807	9,849.61	65.6847	9,849.61	79.3688
10,196.8	79.5603	10,196.8	76.3787	10,196.8	82.9696	10,196.8	76.5505	10,196.8	65.4968	10,196.8	79.3738
10,555.7	80.2799	10,555.7	76.6931	10,555.7	83.0073	10,555.7	75.8062	10,555.7	64.727	10,555.7	79.3697
10,927.7	80.7338	10,927.7	76.9912	10,927.7	82.9377	10,927.7	74.4403	10,927.7	60.3422	10,927.7	79.2014
11,313	81.6125	11,313	76.9176	11,313	82.7154	11,313	72.9558	11,313	55.2681	11,313	79.0497
11,712.9	81.1251	11,712.9	76.498	11,712.9	82.3334	11,712.9	71.4826	11,712.9	54.8674	11,712.9	78.5506
12,126	80.7238	12,126	75.5495	12,126	82.316	12,126	71.492	12,126	56.2871	12,126	78.3969
12,553.7	79.907	12,553.7	74.6464	12,553.7	82.4295	12,553.7	71.5237	12,553.7	57.3079	12,553.7	78.2794
12,996.1	79.7052	12,996.1	73.7062	12,996.1	82.4667	12,996.1	71.625	12,996.1	58.7375	12,996.1	78.2399
13,454.6	79.3205	13,454.6	72.5462	13,454.6	82.4375	13,454.6	71.3938	13,454.6	58.357	13,454.6	78.0966
13,929.2	78.8172	13,929.2	71.0815	13,929.2	82.5515	13,929.2	71.4951	13,929.2	58.334	13,929.2	78.0768
14,419.9	78.8933	14,419.9	69.2381	14,419.9	82.6976	14,419.9	71.4654	14,419.9	57.1326	14,419.9	78.1601
14,928.2	78.2259	14,928.2	67.0135	14,928.2	82.7663	14,928.2	71.1572	14,928.2	55.0323	14,928.2	78.0761
15,455.6	78.0776	15,455.6	65.8591	15,455.6	82.9029	15,455.6	70.2628	15,455.6	54.0903	15,455.6	78.0957
16,000.5	77.943	16,000.5	64.8094	16,000.5	82.7678	16,000.5	68.666	16,000.5	54.4918	16,000.5	77.8759
16,564.5	77.324	16,564.5	64.4854	16,564.5	82.3788	16,564.5	66.8981	16,564.5	56.6603	16,564.5	77.4076
17,148.9	76.5706	17,148.9	64.2094	17,148.9	82.1959	17,148.9	65.5092	17,148.9	57.9146	17,148.9	77.1282
17,752.4	75.5813	17,752.4	64.1846	17,752.4	81.9274	17,752.4	64.5105	17,752.4	57.5824	17,752.4	76.7751
18,379.4	74.3004	18,379.4	64.5614	18,379.4	81.6711	18,379.4	63.8059	18,379.4	56.3376	18,379.4	76.4313
19,026.9	72.546	19,026.9	65.6211	19,026.9	81.2596	19,026.9	64.4744	19,026.9	55.8943	19,026.9	75.9769
19,697.8	71.2507	19,697.8	66.627	19,697.8	80.3121	19,697.8	65.8161	19,697.8	55.7323	19,697.8	75.1201
19,999.5	70.3556	19,999.5	67.997	19,999.5	79.7853	19,999.5	66.4315	19,999.5	57.1786	19,999.5	74.6769
