"SPL Horizontal"																																																																							
"On-Axis"		"10°"		"-10°"		"20°"		"-20°"		"30°"		"-30°"		"40°"		"-40°"		"50°"		"-50°"		"60°"		"-60°"		"70°"		"-70°"		"80°"		"-80°"		"90°"		"-90°"		"100°"		"-100°"		"110°"		"-110°"		"120°"		"-120°"		"130°"		"-130°"		"140°"		"-140°"		"150°"		"-150°"		"160°"		"-160°"		"170°"		"-170°"		"180°"	
"Frequency [Hz]"	"Sound Pessure Level [dB]  / [2.83V 1m] "	"Frequency [Hz]"	"Sound Pessure Level [dB]  / [2.83V 1m] "	"Frequency [Hz]"	"Sound Pessure Level [dB]  / [2.83V 1m] "	"Frequency [Hz]"	"Sound Pessure Level [dB]  / [2.83V 1m] "	"Frequency [Hz]"	"Sound Pessure Level [dB]  / [2.83V 1m] "	"Frequency [Hz]"	"Sound Pessure Level [dB]  / [2.83V 1m] "	"Frequency [Hz]"	"Sound Pessure Level [dB]  / [2.83V 1m] "	"Frequency [Hz]"	"Sound Pessure Level [dB]  / [2.83V 1m] "	"Frequency [Hz]"	"Sound Pessure Level [dB]  / [2.83V 1m] "	"Frequency [Hz]"	"Sound Pessure Level [dB]  / [2.83V 1m] "	"Frequency [Hz]"	"Sound Pessure Level [dB]  / [2.83V 1m] "	"Frequency [Hz]"	"Sound Pessure Level [dB]  / [2.83V 1m] "	"Frequency [Hz]"	"Sound Pessure Level [dB]  / [2.83V 1m] "	"Frequency [Hz]"	"Sound Pessure Level [dB]  / [2.83V 1m] "	"Frequency [Hz]"	"Sound Pessure Level [dB]  / [2.83V 1m] "	"Frequency [Hz]"	"Sound Pessure Level [dB]  / [2.83V 1m] "	"Frequency [Hz]"	"Sound Pessure Level [dB]  / [2.83V 1m] "	"Frequency [Hz]"	"Sound Pessure Level [dB]  / [2.83V 1m] "	"Frequency [Hz]"	"Sound Pessure Level [dB]  / [2.83V 1m] "	"Frequency [Hz]"	"Sound Pessure Level [dB]  / [2.83V 1m] "	"Frequency [Hz]"	"Sound Pessure Level [dB]  / [2.83V 1m] "	"Frequency [Hz]"	"Sound Pessure Level [dB]  / [2.83V 1m] "	"Frequency [Hz]"	"Sound Pessure Level [dB]  / [2.83V 1m] "	"Frequency [Hz]"	"Sound Pessure Level [dB]  / [2.83V 1m] "	"Frequency [Hz]"	"Sound Pessure Level [dB]  / [2.83V 1m] "	"Frequency [Hz]"	"Sound Pessure Level [dB]  / [2.83V 1m] "	"Frequency [Hz]"	"Sound Pessure Level [dB]  / [2.83V 1m] "	"Frequency [Hz]"	"Sound Pessure Level [dB]  / [2.83V 1m] "	"Frequency [Hz]"	"Sound Pessure Level [dB]  / [2.83V 1m] "	"Frequency [Hz]"	"Sound Pessure Level [dB]  / [2.83V 1m] "	"Frequency [Hz]"	"Sound Pessure Level [dB]  / [2.83V 1m] "	"Frequency [Hz]"	"Sound Pessure Level [dB]  / [2.83V 1m] "	"Frequency [Hz]"	"Sound Pessure Level [dB]  / [2.83V 1m] "	"Frequency [Hz]"	"Sound Pessure Level [dB]  / [2.83V 1m] "	"Frequency [Hz]"	"Sound Pessure Level [dB]  / [2.83V 1m] "	"Frequency [Hz]"	"Sound Pessure Level [dB]  / [2.83V 1m] "
20.5078	52.9989	20.5078	52.9701	20.5078	52.9969	20.5078	52.9092	20.5078	52.9665	20.5078	52.8158	20.5078	52.9099	20.5078	52.6914	20.5078	52.8279	20.5078	52.5381	20.5078	52.72	20.5078	52.3588	20.5078	52.5849	20.5078	52.1563	20.5078	52.4216	20.5078	51.9337	20.5078	52.23	20.5078	51.6945	20.5078	52.0106	20.5078	51.4431	20.5078	51.7653	20.5078	51.1848	20.5078	51.4971	20.5078	50.9261	20.5078	51.2124	20.5078	50.6752	20.5078	50.9216	20.5078	50.4429	20.5078	50.6402	20.5078	50.2425	20.5078	50.3871	20.5078	50.0892	20.5078	50.1825	20.5078	49.9982	20.5078	50.0436	20.5078	49.9812
21.9727	56.094	21.9727	56.0566	21.9727	56.1165	21.9727	56.0036	21.9727	56.1239	21.9727	55.9345	21.9727	56.1158	21.9727	55.8487	21.9727	56.0908	21.9727	55.7464	21.9727	56.0472	21.9727	55.629	21.9727	55.983	21.9727	55.4988	21.9727	55.8964	21.9727	55.3597	21.9727	55.7862	21.9727	55.2161	21.9727	55.6521	21.9727	55.0726	21.9727	55.4957	21.9727	54.9328	21.9727	55.3208	21.9727	54.7997	21.9727	55.134	21.9727	54.6758	21.9727	54.945	21.9727	54.5639	21.9727	54.765	21.9727	54.4684	21.9727	54.6062	21.9727	54.3961	21.9727	54.4797	21.9727	54.3549	21.9727	54.3938	21.9727	54.3525
23.4375	55.7896	23.4375	55.7441	23.4375	55.8209	23.4375	55.6846	23.4375	55.8385	23.4375	55.6121	23.4375	55.8429	23.4375	55.5286	23.4375	55.8346	23.4375	55.4358	23.4375	55.8131	23.4375	55.3356	23.4375	55.7776	23.4375	55.2292	23.4375	55.7268	23.4375	55.1171	23.4375	55.6589	23.4375	54.9999	23.4375	55.5726	23.4375	54.8792	23.4375	55.4672	23.4375	54.7585	23.4375	55.3439	23.4375	54.6437	23.4375	55.206	23.4375	54.5422	23.4375	55.0589	23.4375	54.4618	23.4375	54.9098	23.4375	54.4089	23.4375	54.7667	23.4375	54.3881	23.4375	54.6375	23.4375	54.4017	23.4375	54.5298	23.4375	54.4497
24.9023	56.2517	24.9023	56.2527	24.9023	56.2385	24.9023	56.2415	24.9023	56.2138	24.9023	56.2187	24.9023	56.1786	24.9023	56.1854	24.9023	56.1337	24.9023	56.1429	24.9023	56.0793	24.9023	56.0917	24.9023	56.0149	24.9023	56.032	24.9023	55.9399	24.9023	55.9633	24.9023	55.8537	24.9023	55.8853	24.9023	55.7569	24.9023	55.7985	24.9023	55.652	24.9023	55.7049	24.9023	55.5438	24.9023	55.6076	24.9023	55.439	24.9023	55.5111	24.9023	55.3451	24.9023	55.4198	24.9023	55.2685	24.9023	55.3384	24.9023	55.2135	24.9023	55.2704	24.9023	55.1817	24.9023	55.2188	24.9023	55.1729	24.9023	55.1857
26.3672	56.8879	26.3672	56.8818	26.3672	56.8877	26.3672	56.8692	26.3672	56.8816	26.3672	56.8501	26.3672	56.8703	26.3672	56.8248	26.3672	56.854	26.3672	56.7935	26.3672	56.8325	26.3672	56.7558	26.3672	56.805	26.3672	56.7113	26.3672	56.7708	26.3672	56.6598	26.3672	56.7291	26.3672	56.602	26.3672	56.6798	26.3672	56.54	26.3672	56.6237	26.3672	56.4771	26.3672	56.5628	26.3672	56.4174	26.3672	56.5001	26.3672	56.3646	26.3672	56.4392	26.3672	56.3216	26.3672	56.3837	26.3672	56.2896	26.3672	56.3367	26.3672	56.269	26.3672	56.3002	26.3672	56.2596	26.3672	56.275	26.3672	56.2616
27.832	57.8391	27.832	57.8277	27.832	57.8393	27.832	57.805	27.832	57.8288	27.832	57.7718	27.832	57.8087	27.832	57.7293	27.832	57.7802	27.832	57.6791	27.832	57.7444	27.832	57.6228	27.832	57.7021	27.832	57.5617	27.832	57.6538	27.832	57.4971	27.832	57.5993	27.832	57.4299	27.832	57.539	27.832	57.3613	27.832	57.4734	27.832	57.2929	27.832	57.4041	27.832	57.2272	27.832	57.3335	27.832	57.1673	27.832	57.265	27.832	57.1167	27.832	57.202	27.832	57.0782	27.832	57.1471	27.832	57.0539	27.832	57.1026	27.832	57.0447	27.832	57.07	27.832	57.0503
29.2969	58.869	29.2969	58.864	29.2969	58.8609	29.2969	58.8456	29.2969	58.8404	29.2969	58.8142	29.2969	58.8089	29.2969	58.7709	29.2969	58.7679	29.2969	58.717	29.2969	58.7184	29.2969	58.654	29.2969	58.6614	29.2969	58.5832	29.2969	58.5976	29.2969	58.5061	29.2969	58.5275	29.2969	58.4243	29.2969	58.4522	29.2969	58.3401	29.2969	58.3732	29.2969	58.2565	29.2969	58.293	29.2969	58.1769	29.2969	58.2146	29.2969	58.105	29.2969	58.1414	29.2969	58.044	29.2969	58.0766	29.2969	57.9961	29.2969	58.0228	29.2969	57.9629	29.2969	57.9819	29.2969	57.945	29.2969	57.9548	29.2969	57.9424
30.7617	59.6719	30.7617	59.6641	30.7617	59.6672	30.7617	59.6439	30.7617	59.6503	30.7617	59.6117	30.7617	59.622	30.7617	59.5688	30.7617	59.5834	30.7617	59.5163	30.7617	59.5354	30.7617	59.4556	30.7617	59.479	30.7617	59.388	30.7617	59.4152	30.7617	59.3149	30.7617	59.3444	30.7617	59.2374	30.7617	59.2676	30.7617	59.1573	30.7617	59.186	30.7617	59.0764	30.7617	59.1014	30.7617	58.9971	30.7617	59.0169	30.7617	58.9221	30.7617	58.936	30.7617	58.8545	30.7617	58.8626	30.7617	58.7971	30.7617	58.8007	30.7617	58.753	30.7617	58.7537	30.7617	58.7249	30.7617	58.7247	30.7617	58.715
32.2266	60.2561	32.2266	60.2454	32.2266	60.2563	32.2266	60.224	32.2266	60.2466	32.2266	60.1923	32.2266	60.228	32.2266	60.1509	32.2266	60.2012	32.2266	60.1014	32.2266	60.1672	32.2266	60.0451	32.2266	60.1267	32.2266	59.9841	32.2266	60.0805	32.2266	59.92	32.2266	60.0295	32.2266	59.8552	32.2266	59.9747	32.2266	59.7918	32.2266	59.9178	32.2266	59.7326	32.2266	59.8604	32.2266	59.6806	32.2266	59.8046	32.2266	59.6382	32.2266	59.7524	32.2266	59.6072	32.2266	59.7054	32.2266	59.5878	32.2266	59.665	32.2266	59.5792	32.2266	59.632	32.2266	59.5801	32.2266	59.6068	32.2266	59.5894
33.6914	61.0999	33.6914	61.0875	33.6914	61.1005	33.6914	61.0636	33.6914	61.0893	33.6914	61.029	33.6914	61.0668	33.6914	60.985	33.6914	61.0339	33.6914	60.9328	33.6914	60.9918	33.6914	60.874	33.6914	60.9415	33.6914	60.8098	33.6914	60.8844	33.6914	60.7416	33.6914	60.8219	33.6914	60.6709	33.6914	60.7556	33.6914	60.5994	33.6914	60.6874	33.6914	60.5292	33.6914	60.6196	33.6914	60.4632	33.6914	60.5542	33.6914	60.4043	33.6914	60.4934	33.6914	60.3558	33.6914	60.4386	33.6914	60.3205	33.6914	60.391	33.6914	60.2997	33.6914	60.3515	33.6914	60.2937	33.6914	60.3212	33.6914	60.3014
35.1562	62.0183	35.1562	62.0011	35.1562	62.0251	35.1562	61.974	35.1562	62.0214	35.1562	61.9374	35.1562	62.0076	35.1562	61.892	35.1562	61.9846	35.1562	61.8386	35.1562	61.9534	35.1562	61.7783	35.1562	61.9156	35.1562	61.7124	35.1562	61.8725	35.1562	61.6428	35.1562	61.8253	35.1562	61.5719	35.1562	61.7753	35.1562	61.5025	35.1562	61.7231	35.1562	61.438	35.1562	61.6698	35.1562	61.382	35.1562	61.6158	35.1562	61.3378	35.1562	61.5621	35.1562	61.308	35.1562	61.5093	35.1562	61.2936	35.1562	61.4586	35.1562	61.2944	35.1562	61.4115	35.1562	61.3088	35.1562	61.3695	35.1562	61.3346
36.6211	62.583	36.6211	62.5737	36.6211	62.5797	36.6211	62.5518	36.6211	62.5644	36.6211	62.5177	36.6211	62.5379	36.6211	62.4724	36.6211	62.5017	36.6211	62.4168	36.6211	62.4574	36.6211	62.3527	36.6211	62.4066	36.6211	62.2817	36.6211	62.3506	36.6211	62.206	36.6211	62.2906	36.6211	62.1279	36.6211	62.2278	36.6211	62.05	36.6211	62.1632	36.6211	61.9753	36.6211	62.0984	36.6211	61.9072	36.6211	62.0349	36.6211	61.8488	36.6211	61.9747	36.6211	61.8032	36.6211	61.9193	36.6211	61.7723	36.6211	61.87	36.6211	61.7569	36.6211	61.8278	36.6211	61.7564	36.6211	61.7937	36.6211	61.7694
38.0859	63.5977	38.0859	63.5917	38.0859	63.592	38.0859	63.5738	38.0859	63.575	38.0859	63.5443	38.0859	63.5477	38.0859	63.5038	38.0859	63.5113	38.0859	63.4531	38.0859	63.4676	38.0859	63.3935	38.0859	63.4183	38.0859	63.3263	38.0859	63.3651	38.0859	63.2534	38.0859	63.3095	38.0859	63.1769	38.0859	63.2527	38.0859	63.0995	38.0859	63.1959	38.0859	63.0247	38.0859	63.1404	38.0859	62.9564	38.0859	63.0871	38.0859	62.899	38.0859	63.0369	38.0859	62.8562	38.0859	62.9903	38.0859	62.8306	38.0859	62.9477	38.0859	62.8221	38.0859	62.9092	38.0859	62.829	38.0859	62.8755	38.0859	62.8479
39.5508	64.1473	39.5508	64.1337	39.5508	64.154	39.5508	64.1131	39.5508	64.1541	39.5508	64.0858	39.5508	64.1481	39.5508	64.0521	39.5508	64.1364	39.5508	64.0128	39.5508	64.12	39.5508	63.9687	39.5508	64.0995	39.5508	63.921	39.5508	64.0753	39.5508	63.8711	39.5508	64.0477	39.5508	63.8207	39.5508	64.0168	39.5508	63.772	39.5508	63.983	39.5508	63.7277	39.5508	63.9472	39.5508	63.691	39.5508	63.9108	39.5508	63.665	39.5508	63.8749	39.5508	63.6519	39.5508	63.8406	39.5508	63.6524	39.5508	63.8078	39.5508	63.6651	39.5508	63.7761	39.5508	63.687	39.5508	63.7448	39.5508	63.7146
41.0156	63.1083	41.0156	63.0792	41.0156	63.1362	41.0156	63.0487	41.0156	63.1635	41.0156	63.0169	41.0156	63.1903	41.0156	62.9839	41.0156	63.2167	41.0156	62.9502	41.0156	63.2425	41.0156	62.916	41.0156	63.2671	41.0156	62.8811	41.0156	63.289	41.0156	62.8449	41.0156	63.3057	41.0156	62.8067	41.0156	63.3139	41.0156	62.7666	41.0156	63.3102	41.0156	62.7255	41.0156	63.2918	41.0156	62.6863	41.0156	63.2572	41.0156	62.6534	41.0156	63.2061	41.0156	62.6332	41.0156	63.1395	41.0156	62.6327	41.0156	63.059	41.0156	62.6575	41.0156	62.9684	41.0156	62.7092	41.0156	62.8737	41.0156	62.7839
42.4805	64.4962	42.4805	64.5074	42.4805	64.4706	42.4805	64.5041	42.4805	64.4316	42.4805	64.4864	42.4805	64.3804	42.4805	64.4551	42.4805	64.3185	42.4805	64.411	42.4805	64.2478	42.4805	64.3558	42.4805	64.1698	42.4805	64.2913	42.4805	64.0863	42.4805	64.2197	42.4805	63.9983	42.4805	64.1436	42.4805	63.9071	42.4805	64.0653	42.4805	63.8138	42.4805	63.9865	42.4805	63.7201	42.4805	63.908	42.4805	63.6293	42.4805	63.8291	42.4805	63.5465	42.4805	63.749	42.4805	63.4787	42.4805	63.6683	42.4805	63.4328	42.4805	63.5896	42.4805	63.4139	42.4805	63.5181	42.4805	63.4239	42.4805	63.4604
43.9453	65.2881	43.9453	65.3123	43.9453	65.2497	43.9453	65.3215	43.9453	65.1979	43.9453	65.3155	43.9453	65.1339	43.9453	65.2944	43.9453	65.0591	43.9453	65.259	43.9453	64.9751	43.9453	65.2105	43.9453	64.884	43.9453	65.1503	43.9453	64.7879	43.9453	65.0801	43.9453	64.6893	43.9453	65.0017	43.9453	64.5908	43.9453	64.9168	43.9453	64.4951	43.9453	64.8273	43.9453	64.405	43.9453	64.7349	43.9453	64.3237	43.9453	64.6409	43.9453	64.2549	43.9453	64.5469	43.9453	64.2031	43.9453	64.4548	43.9453	64.1724	43.9453	64.3678	43.9453	64.1661	43.9453	64.2903	43.9453	64.185	43.9453	64.2277
45.4102	65.937	45.4102	65.9335	45.4102	65.9277	45.4102	65.9176	45.4102	65.9057	45.4102	65.89	45.4102	65.8713	45.4102	65.8515	45.4102	65.8254	45.4102	65.8034	45.4102	65.7693	45.4102	65.7469	45.4102	65.7043	45.4102	65.6836	45.4102	65.6322	45.4102	65.6148	45.4102	65.5547	45.4102	65.5419	45.4102	65.4738	45.4102	65.4663	45.4102	65.3913	45.4102	65.3895	45.4102	65.3095	45.4102	65.3135	45.4102	65.231	45.4102	65.24	45.4102	65.1588	45.4102	65.1715	45.4102	65.0963	45.4102	65.1104	45.4102	65.0469	45.4102	65.0599	45.4102	65.0137	45.4102	65.0228	45.4102	64.9984	45.4102	65.0017
46.875	66.5431	46.875	66.5353	46.875	66.5406	46.875	66.5175	46.875	66.5273	46.875	66.4909	46.875	66.5038	46.875	66.4566	46.875	66.4708	46.875	66.4163	46.875	66.4295	46.875	66.3714	46.875	66.3815	46.875	66.3237	46.875	66.3285	46.875	66.2744	46.875	66.2721	46.875	66.2245	46.875	66.214	46.875	66.1749	46.875	66.1559	46.875	66.1262	46.875	66.0994	46.875	66.0793	46.875	66.0463	46.875	66.035	46.875	65.9986	46.875	65.9947	46.875	65.9582	46.875	65.9595	46.875	65.927	46.875	65.9308	46.875	65.9062	46.875	65.9099	46.875	65.8967	46.875	65.8982
48.3398	67.0992	48.3398	67.0954	48.3398	67.0938	48.3398	67.0827	48.3398	67.079	48.3398	67.0621	48.3398	67.0553	48.3398	67.0345	48.3398	67.0233	48.3398	67.0011	48.3398	66.9844	48.3398	66.9633	48.3398	66.9399	48.3398	66.9222	48.3398	66.8919	48.3398	66.8791	48.3398	66.8423	48.3398	66.8351	48.3398	66.793	48.3398	66.7912	48.3398	66.7457	48.3398	66.7484	48.3398	66.7017	48.3398	66.7075	48.3398	66.6621	48.3398	66.6696	48.3398	66.6276	48.3398	66.6358	48.3398	66.599	48.3398	66.6069	48.3398	66.5771	48.3398	66.5839	48.3398	66.5628	48.3398	66.5674	48.3398	66.5564	48.3398	66.558
51.2695	68.2102	51.2695	68.2014	51.2695	68.2082	51.2695	68.1823	51.2695	68.1955	51.2695	68.1539	51.2695	68.1725	51.2695	68.1173	51.2695	68.1403	51.2695	68.074	51.2695	68.1002	51.2695	68.0259	51.2695	68.0539	51.2695	67.975	51.2695	68.0033	51.2695	67.9232	51.2695	67.9505	51.2695	67.8725	51.2695	67.8974	51.2695	67.8245	51.2695	67.8459	51.2695	67.7807	51.2695	67.7974	51.2695	67.7419	51.2695	67.7534	51.2695	67.7086	51.2695	67.7149	51.2695	67.6809	51.2695	67.6827	51.2695	67.6587	51.2695	67.6575	51.2695	67.6422	51.2695	67.6398	51.2695	67.6314	51.2695	67.6297	51.2695	67.627
52.7344	68.6758	52.7344	68.6668	52.7344	68.6748	52.7344	68.648	52.7344	68.664	52.7344	68.6201	52.7344	68.6438	52.7344	68.584	52.7344	68.615	52.7344	68.5409	52.7344	68.5787	52.7344	68.4923	52.7344	68.5362	52.7344	68.4401	52.7344	68.4892	52.7344	68.3862	52.7344	68.4393	52.7344	68.3325	52.7344	68.3881	52.7344	68.2807	52.7344	68.3372	52.7344	68.2328	52.7344	68.2882	52.7344	68.19	52.7344	68.2422	52.7344	68.1537	52.7344	68.2004	52.7344	68.1245	52.7344	68.1638	52.7344	68.1028	52.7344	68.1332	52.7344	68.0887	52.7344	68.1093	52.7344	68.0823	52.7344	68.0927	52.7344	68.0836
54.1992	69.1486	54.1992	69.1432	54.1992	69.1443	54.1992	69.1282	54.1992	69.1305	54.1992	69.1041	54.1992	69.1075	54.1992	69.072	54.1992	69.0763	54.1992	69.033	54.1992	69.0379	54.1992	68.9888	54.1992	68.9938	54.1992	68.9412	54.1992	68.9457	54.1992	68.892	54.1992	68.8953	54.1992	68.8431	54.1992	68.8447	54.1992	68.796	54.1992	68.7956	54.1992	68.7522	54.1992	68.7498	54.1992	68.7127	54.1992	68.7087	54.1992	68.6786	54.1992	68.6733	54.1992	68.6502	54.1992	68.6443	54.1992	68.6277	54.1992	68.6222	54.1992	68.6112	54.1992	68.607	54.1992	68.6008	54.1992	68.5985	54.1992	68.5965
55.6641	69.7111	55.6641	69.7123	55.6641	69.6987	55.6641	69.7026	55.6641	69.6755	55.6641	69.6825	55.6641	69.6422	55.6641	69.6529	55.6641	69.5998	55.6641	69.615	55.6641	69.5499	55.6641	69.5702	55.6641	69.4944	55.6641	69.5201	55.6641	69.4352	55.6641	69.4662	55.6641	69.3747	55.6641	69.4101	55.6641	69.3149	55.6641	69.3534	55.6641	69.2579	55.6641	69.2974	55.6641	69.2053	55.6641	69.2439	55.6641	69.1588	55.6641	69.1944	55.6641	69.1196	55.6641	69.1504	55.6641	69.0885	55.6641	69.1132	55.6641	69.066	55.6641	69.0838	55.6641	69.0523	55.6641	69.0629	55.6641	69.0472	55.6641	69.0507
58.5938	70.5845	58.5938	70.5749	58.5938	70.5835	58.5938	70.5548	58.5938	70.5721	58.5938	70.525	58.5938	70.551	58.5938	70.4868	58.5938	70.5214	58.5938	70.4418	58.5938	70.485	58.5938	70.3923	58.5938	70.4437	58.5938	70.3408	58.5938	70.3994	58.5938	70.2899	58.5938	70.3544	58.5938	70.242	58.5938	70.3104	58.5938	70.1993	58.5938	70.2692	58.5938	70.1632	58.5938	70.2319	58.5938	70.1348	58.5938	70.1993	58.5938	70.1141	58.5938	70.1718	58.5938	70.1007	58.5938	70.1493	58.5938	70.0937	58.5938	70.1314	58.5938	70.0917	58.5938	70.1175	58.5938	70.0938	58.5938	70.1068	58.5938	70.099
60.0586	71.0691	60.0586	71.0622	60.0586	71.0651	60.0586	71.0447	60.0586	71.0503	60.0586	71.0173	60.0586	71.0253	60.0586	70.981	60.0586	70.9911	60.0586	70.9375	60.0586	70.9491	60.0586	70.8887	60.0586	70.9012	60.0586	70.8366	60.0586	70.8495	60.0586	70.7834	60.0586	70.7961	60.0586	70.7316	60.0586	70.7433	60.0586	70.683	60.0586	70.693	60.0586	70.6394	60.0586	70.6468	60.0586	70.6018	60.0586	70.606	60.0586	70.5707	60.0586	70.5715	60.0586	70.546	60.0586	70.5439	60.0586	70.5273	60.0586	70.5236	60.0586	70.514	60.0586	70.5102	60.0586	70.5056	60.0586	70.5032	60.0586	70.5019
62.9883	71.9191	62.9883	71.9111	62.9883	71.9156	62.9883	71.8917	62.9883	71.9006	62.9883	71.8619	62.9883	71.8748	62.9883	71.8228	62.9883	71.8393	62.9883	71.776	62.9883	71.7955	62.9883	71.7235	62.9883	71.7455	62.9883	71.6676	62.9883	71.6912	62.9883	71.6105	62.9883	71.635	62.9883	71.5545	62.9883	71.5791	62.9883	71.5016	62.9883	71.5257	62.9883	71.4537	62.9883	71.4766	62.9883	71.4121	62.9883	71.4332	62.9883	71.3777	62.9883	71.3966	62.9883	71.3507	62.9883	71.3669	62.9883	71.3312	62.9883	71.3441	62.9883	71.3187	62.9883	71.3278	62.9883	71.3126	62.9883	71.3173	62.9883	71.3122
64.4531	72.3611	64.4531	72.3511	64.4531	72.3588	64.4531	72.3291	64.4531	72.3443	64.4531	72.296	64.4531	72.3181	64.4531	72.253	64.4531	72.2814	64.4531	72.2017	64.4531	72.2354	64.4531	72.1441	64.4531	72.1821	64.4531	72.0826	64.4531	72.1234	64.4531	72.0195	64.4531	72.0618	64.4531	71.9574	64.4531	71.9995	64.4531	71.8985	64.4531	71.9389	64.4531	71.8446	64.4531	71.882	64.4531	71.7973	64.4531	71.8306	64.4531	71.7576	64.4531	71.7859	64.4531	71.7259	64.4531	71.7489	64.4531	71.7023	64.4531	71.7197	64.4531	71.6867	64.4531	71.6984	64.4531	71.6787	64.4531	71.6846	64.4531	71.6781
67.3828	73.2057	67.3828	73.1938	67.3828	73.2061	67.3828	73.1706	67.3828	73.195	67.3828	73.1368	67.3828	73.1726	67.3828	73.0936	67.3828	73.1398	67.3828	73.0424	67.3828	73.0975	67.3828	72.985	67.3828	73.0471	67.3828	72.9235	67.3828	72.9902	67.3828	72.8601	67.3828	72.9289	67.3828	72.7971	67.3828	72.8653	67.3828	72.7369	67.3828	72.8017	67.3828	72.6813	67.3828	72.7406	67.3828	72.632	67.3828	72.6838	67.3828	72.5902	67.3828	72.6333	67.3828	72.5564	67.3828	72.5902	67.3828	72.5311	67.3828	72.5556	67.3828	72.5142	67.3828	72.5299	67.3828	72.5055	67.3828	72.5131	67.3828	72.505
68.8477	73.5763	68.8477	73.5658	68.8477	73.5768	68.8477	73.5457	68.8477	73.5675	68.8477	73.5166	68.8477	73.5488	68.8477	73.4797	68.8477	73.5216	68.8477	73.4365	68.8477	73.4869	68.8477	73.3886	68.8477	73.4462	68.8477	73.3379	68.8477	73.401	68.8477	73.2866	68.8477	73.3528	68.8477	73.2364	68.8477	73.3034	68.8477	73.1892	68.8477	73.2544	68.8477	73.1462	68.8477	73.2074	68.8477	73.1086	68.8477	73.164	68.8477	73.0771	68.8477	73.1253	68.8477	73.0521	68.8477	73.0922	68.8477	73.0341	68.8477	73.0651	68.8477	73.0229	68.8477	73.0442	68.8477	73.0185	68.8477	73.0294	68.8477	73.0208
71.7773	74.3609	71.7773	74.3535	71.7773	74.357	71.7773	74.3349	71.7773	74.342	71.7773	74.306	71.7773	74.3168	71.7773	74.268	71.7773	74.2827	71.7773	74.2226	71.7773	74.2415	71.7773	74.1718	71.7773	74.1954	71.7773	74.1179	71.7773	74.1468	71.7773	74.0634	71.7773	74.0977	71.7773	74.0108	71.7773	74.0504	71.7773	73.9623	71.7773	74.0065	71.7773	73.9198	71.7773	73.9672	71.7773	73.8847	71.7773	73.9333	71.7773	73.8576	71.7773	73.9051	71.7773	73.8387	71.7773	73.8823	71.7773	73.8275	71.7773	73.8642	71.7773	73.8232	71.7773	73.8499	71.7773	73.8244	71.7773	73.8386	71.7773	73.8299
74.707	75.1511	74.707	75.1433	74.707	75.1473	74.707	75.124	74.707	75.1322	74.707	75.0939	74.707	75.1064	74.707	75.0542	74.707	75.0713	74.707	75.0064	74.707	75.0283	74.707	74.9524	74.707	74.9793	74.707	74.8943	74.707	74.9262	74.707	74.8344	74.707	74.8709	74.707	74.7749	74.707	74.8155	74.707	74.7181	74.707	74.7617	74.707	74.666	74.707	74.7111	74.707	74.6202	74.707	74.6653	74.707	74.5819	74.707	74.6252	74.707	74.5521	74.707	74.5914	74.707	74.5311	74.707	74.564	74.707	74.5188	74.707	74.5427	74.707	74.5147	74.707	74.5273	74.707	74.5178
77.6367	75.8518	77.6367	75.8447	77.6367	75.8476	77.6367	75.8266	77.6367	75.8325	77.6367	75.7984	77.6367	75.8071	77.6367	75.7612	77.6367	75.7726	77.6367	75.7166	77.6367	75.7307	77.6367	75.6666	77.6367	75.6832	77.6367	75.6131	77.6367	75.6321	77.6367	75.5582	77.6367	75.5793	77.6367	75.5039	77.6367	75.5266	77.6367	75.4519	77.6367	75.4757	77.6367	75.4038	77.6367	75.4279	77.6367	75.3609	77.6367	75.3842	77.6367	75.3241	77.6367	75.3457	77.6367	75.294	77.6367	75.313	77.6367	75.2711	77.6367	75.2865	77.6367	75.2556	77.6367	75.2665	77.6367	75.2476	77.6367	75.2532	77.6367	75.2469
79.1016	76.2063	79.1016	76.1986	79.1016	76.2028	79.1016	76.1797	79.1016	76.1881	79.1016	76.1507	79.1016	76.1631	79.1016	76.1127	79.1016	76.129	79.1016	76.0676	79.1016	76.0874	79.1016	76.0173	79.1016	76.0402	79.1016	75.964	79.1016	75.9893	79.1016	75.91	79.1016	75.9369	79.1016	75.8571	79.1016	75.8848	79.1016	75.8073	79.1016	75.8345	79.1016	75.7618	79.1016	75.7875	79.1016	75.7216	79.1016	75.7448	79.1016	75.6872	79.1016	75.7072	79.1016	75.6591	79.1016	75.6753	79.1016	75.6375	79.1016	75.6497	79.1016	75.6225	79.1016	75.6306	79.1016	75.6142	79.1016	75.6182	79.1016	75.6128
82.0312	76.9167	82.0312	76.9109	82.0312	76.9103	82.0312	76.8934	82.0312	76.892	82.0312	76.865	82.0312	76.8624	82.0312	76.8272	82.0312	76.823	82.0312	76.7819	82.0312	76.7755	82.0312	76.7312	82.0312	76.722	82.0312	76.6774	82.0312	76.6651	82.0312	76.6228	82.0312	76.6073	82.0312	76.5694	82.0312	76.5509	82.0312	76.5192	82.0312	76.4982	82.0312	76.4733	82.0312	76.4507	82.0312	76.4327	82.0312	76.4098	82.0312	76.3977	82.0312	76.3759	82.0312	76.3687	82.0312	76.3493	82.0312	76.3454	82.0312	76.3298	82.0312	76.328	82.0312	76.317	82.0312	76.3163	82.0312	76.3107	82.0312	76.3105
84.9609	77.5856	84.9609	77.5771	84.9609	77.5819	84.9609	77.5569	84.9609	77.5658	84.9609	77.526	84.9609	77.538	84.9609	77.4859	84.9609	77.4995	84.9609	77.4384	84.9609	77.4517	84.9609	77.3853	84.9609	77.3965	84.9609	77.3286	84.9609	77.336	84.9609	77.2702	84.9609	77.2728	84.9609	77.2121	84.9609	77.2093	84.9609	77.1558	84.9609	77.1479	84.9609	77.103	84.9609	77.0908	84.9609	77.0548	84.9609	77.0399	84.9609	77.0124	84.9609	76.9965	84.9609	76.9765	84.9609	76.9614	84.9609	76.9478	84.9609	76.935	84.9609	76.9264	84.9609	76.9172	84.9609	76.9126	84.9609	76.9077	84.9609	76.9063
87.8906	77.9996	87.8906	77.9805	87.8906	78.0092	87.8906	77.9526	87.8906	78.0092	87.8906	77.9171	87.8906	78.0004	87.8906	77.8761	87.8906	77.9837	87.8906	77.8318	87.8906	77.9606	87.8906	77.7867	87.8906	77.9325	87.8906	77.743	87.8906	77.9009	87.8906	77.7027	87.8906	77.8672	87.8906	77.6674	87.8906	77.8325	87.8906	77.6379	87.8906	77.798	87.8906	77.6145	87.8906	77.7645	87.8906	77.5973	87.8906	77.7328	87.8906	77.5858	87.8906	77.7033	87.8906	77.5796	87.8906	77.6765	87.8906	77.5781	87.8906	77.6526	87.8906	77.5811	87.8906	77.6316	87.8906	77.5881	87.8906	77.6137	87.8906	77.5991
90.8203	78.6771	90.8203	78.6612	90.8203	78.6815	90.8203	78.6342	90.8203	78.6749	90.8203	78.5971	90.8203	78.6584	90.8203	78.5516	90.8203	78.6335	90.8203	78.5004	90.8203	78.6023	90.8203	78.4465	90.8203	78.5668	90.8203	78.3934	90.8203	78.5295	90.8203	78.3446	90.8203	78.4923	90.8203	78.303	90.8203	78.4571	90.8203	78.2708	90.8203	78.4252	90.8203	78.249	90.8203	78.3974	90.8203	78.2374	90.8203	78.374	90.8203	78.2345	90.8203	78.3546	90.8203	78.2386	90.8203	78.3384	90.8203	78.2474	90.8203	78.3243	90.8203	78.259	90.8203	78.3112	90.8203	78.2719	90.8203	78.2983	90.8203	78.2852
95.2148	79.5633	95.2148	79.5542	95.2148	79.56	95.2148	79.5332	95.2148	79.5446	95.2148	79.5011	95.2148	79.5184	95.2148	79.4596	95.2148	79.4829	95.2148	79.411	95.2148	79.4404	95.2148	79.3578	95.2148	79.3935	95.2148	79.3028	95.2148	79.3449	95.2148	79.2491	95.2148	79.2972	95.2148	79.1991	95.2148	79.2528	95.2148	79.1552	95.2148	79.2133	95.2148	79.1189	95.2148	79.1798	95.2148	79.091	95.2148	79.1524	95.2148	79.0716	95.2148	79.1307	95.2148	79.0601	95.2148	79.1135	95.2148	79.0553	95.2148	79.0994	95.2148	79.0559	95.2148	79.0875	95.2148	79.0605	95.2148	79.077	95.2148	79.0678
98.1445	80.2044	98.1445	80.1978	98.1445	80.1965	98.1445	80.1774	98.1445	80.1744	98.1445	80.1443	98.1445	80.1395	98.1445	80.1006	98.1445	80.0939	98.1445	80.0488	98.1445	80.0403	98.1445	79.992	98.1445	79.9823	98.1445	79.9334	98.1445	79.9232	98.1445	79.8761	98.1445	79.8666	98.1445	79.8231	98.1445	79.8152	98.1445	79.7766	98.1445	79.7713	98.1445	79.738	98.1445	79.7358	98.1445	79.708	98.1445	79.709	98.1445	79.6862	98.1445	79.69	98.1445	79.6717	98.1445	79.6773	98.1445	79.6632	98.1445	79.6692	98.1445	79.6591	98.1445	79.6641	98.1445	79.658	98.1445	79.6608	98.1445	79.6587
101.074	80.7979	101.074	80.7908	101.074	80.7893	101.074	80.7692	101.074	80.7649	101.074	80.7346	101.074	80.7252	101.074	80.6892	101.074	80.6718	101.074	80.6351	101.074	80.6071	101.074	80.5749	101.074	80.5343	101.074	80.511	101.074	80.4571	101.074	80.4458	101.074	80.3795	101.074	80.3818	101.074	80.3055	101.074	80.3212	101.074	80.2386	101.074	80.266	101.074	80.1818	101.074	80.2178	101.074	80.1371	101.074	80.1776	101.074	80.1051	101.074	80.1454	101.074	80.0851	101.074	80.1209	101.074	80.075	101.074	80.103	101.074	80.0725	101.074	80.0901	101.074	80.075	101.074	80.081
105.469	81.311	105.469	81.2908	105.469	81.3182	105.469	81.259	105.469	81.3121	105.469	81.218	105.469	81.2932	105.469	81.171	105.469	81.2628	105.469	81.1217	105.469	81.2231	105.469	81.0737	105.469	81.1765	105.469	81.0299	105.469	81.1254	105.469	80.9922	105.469	81.0723	105.469	80.9608	105.469	81.0193	105.469	80.9348	105.469	80.9682	105.469	80.9127	105.469	80.9204	105.469	80.8924	105.469	80.8774	105.469	80.8726	105.469	80.8405	105.469	80.8527	105.469	80.8112	105.469	80.8327	105.469	80.7905	105.469	80.8136	105.469	80.7792	105.469	80.7966	105.469	80.7774	105.469	80.7838
108.398	81.7927	108.398	81.7834	108.398	81.7883	108.398	81.7596	108.398	81.772	108.398	81.7214	108.398	81.746	108.398	81.6703	108.398	81.7129	108.398	81.6091	108.398	81.6754	108.398	81.5422	108.398	81.6363	108.398	81.475	108.398	81.5981	108.398	81.413	108.398	81.5627	108.398	81.3613	108.398	81.531	108.398	81.3231	108.398	81.5032	108.398	81.2994	108.398	81.4783	108.398	81.2888	108.398	81.4552	108.398	81.2885	108.398	81.4327	108.398	81.2948	108.398	81.4104	108.398	81.3045	108.398	81.3887	108.398	81.3151	108.398	81.3687	108.398	81.326	108.398	81.3516	108.398	81.3377
112.793	82.4015	112.793	82.406	112.793	82.3845	112.793	82.3995	112.793	82.3544	112.793	82.3838	112.793	82.3114	112.793	82.3604	112.793	82.2573	112.793	82.331	112.793	82.1952	112.793	82.2972	112.793	82.1298	112.793	82.2605	112.793	82.0666	112.793	82.223	112.793	82.0111	112.793	82.1867	112.793	81.9681	112.793	82.1537	112.793	81.9402	112.793	82.1257	112.793	81.9281	112.793	82.1034	112.793	81.9298	112.793	82.0863	112.793	81.9417	112.793	82.0734	112.793	81.9595	112.793	82.063	112.793	81.9795	112.793	82.0533	112.793	81.9988	112.793	82.0428	112.793	82.016	112.793	82.0306
117.188	83.0626	117.188	83.0504	117.188	83.0581	117.188	83.0223	117.188	83.0372	117.188	82.9801	117.188	83.0013	117.188	82.9269	117.188	82.9528	117.188	82.8666	117.188	82.895	117.188	82.8037	117.188	82.8323	117.188	82.7429	117.188	82.7695	117.188	82.6886	117.188	82.7121	117.188	82.6444	117.188	82.6645	117.188	82.6131	117.188	82.6301	117.188	82.5958	117.188	82.6102	117.188	82.5921	117.188	82.6039	117.188	82.5998	117.188	82.6088	117.188	82.615	117.188	82.6215	117.188	82.6334	117.188	82.6375	117.188	82.6505	117.188	82.6528	117.188	82.6626	117.188	82.6635	117.188	82.6671
120.117	83.4611	120.117	83.4514	120.117	83.4516	120.117	83.4231	120.117	83.4238	120.117	83.378	120.117	83.3796	120.117	83.3194	120.117	83.3222	120.117	83.2514	120.117	83.2558	120.117	83.179	120.117	83.1853	120.117	83.1076	120.117	83.1166	120.117	83.0426	120.117	83.0553	120.117	82.9892	120.117	83.0068	120.117	82.9514	120.117	82.9746	120.117	82.9316	120.117	82.96	120.117	82.9299	120.117	82.9618	120.117	82.9438	120.117	82.9763	120.117	82.9685	120.117	82.9985	120.117	82.9978	120.117	83.0226	120.117	83.0256	120.117	83.0431	120.117	83.0464	120.117	83.0555	120.117	83.0568
124.512	84.0642	124.512	84.0446	124.512	84.0617	124.512	84.0031	124.512	84.0383	124.512	83.9416	124.512	83.9962	124.512	83.8632	124.512	83.9388	124.512	83.7726	124.512	83.87	124.512	83.675	124.512	83.794	124.512	83.5765	124.512	83.7152	124.512	83.4831	124.512	83.6383	124.512	83.4004	124.512	83.5678	124.512	83.3333	124.512	83.5082	124.512	83.2852	124.512	83.4622	124.512	83.2578	124.512	83.4312	124.512	83.2509	124.512	83.4136	124.512	83.2616	124.512	83.4059	124.512	83.2853	124.512	83.4029	124.512	83.3157	124.512	83.3991	124.512	83.3464	124.512	83.3897	124.512	83.3721
128.906	84.5199	128.906	84.5145	128.906	84.501	128.906	84.485	128.906	84.4584	128.906	84.4328	128.906	84.3941	128.906	84.3604	128.906	84.311	128.906	84.2713	128.906	84.2129	128.906	84.1695	128.906	84.1042	128.906	84.0599	128.906	83.9893	128.906	83.9476	128.906	83.8731	128.906	83.838	128.906	83.7608	128.906	83.7359	128.906	83.6574	128.906	83.6452	128.906	83.5677	128.906	83.5686	128.906	83.4952	128.906	83.5075	128.906	83.4417	128.906	83.4614	128.906	83.4065	128.906	83.4289	128.906	83.3871	128.906	83.4071	128.906	83.3794	128.906	83.3931	128.906	83.3794	128.906	83.3843
133.301	84.5943	133.301	84.5905	133.301	84.5786	133.301	84.5682	133.301	84.5437	133.301	84.5292	133.301	84.4913	133.301	84.4764	133.301	84.4241	133.301	84.4134	133.301	84.3458	133.301	84.3442	133.301	84.2611	133.301	84.2728	133.301	84.1748	133.301	84.2031	133.301	84.0919	133.301	84.1382	133.301	84.0168	133.301	84.0806	133.301	83.953	133.301	84.0318	133.301	83.903	133.301	83.9924	133.301	83.868	133.301	83.962	133.301	83.848	133.301	83.9392	133.301	83.8412	133.301	83.9221	133.301	83.8449	133.301	83.9083	133.301	83.8554	133.301	83.8958	133.301	83.869	133.301	83.8828
139.16	84.841	139.16	84.832	139.16	84.831	139.16	84.804	139.16	84.8031	139.16	84.7589	139.16	84.7598	139.16	84.6998	139.16	84.7046	139.16	84.6312	139.16	84.6417	139.16	84.5584	139.16	84.5755	139.16	84.4873	139.16	84.5107	139.16	84.4235	139.16	84.4512	139.16	84.3717	139.16	84.4005	139.16	84.3347	139.16	84.3609	139.16	84.3136	139.16	84.3335	139.16	84.3069	139.16	84.3181	139.16	84.3114	139.16	84.3137	139.16	84.3227	139.16	84.3178	139.16	84.336	139.16	84.3274	139.16	84.3473	139.16	84.3389	139.16	84.3538	139.16	84.3487	139.16	84.3543
143.555	85.0533	143.555	85.041	143.555	85.0434	143.555	85.0071	143.555	85.0125	143.555	84.954	143.555	84.9633	143.555	84.8859	143.555	84.9003	143.555	84.8082	143.555	84.8286	143.555	84.727	143.555	84.7538	143.555	84.6487	143.555	84.6816	143.555	84.5789	143.555	84.6168	143.555	84.5225	143.555	84.5629	143.555	84.4824	143.555	84.5224	143.555	84.4595	143.555	84.4958	143.555	84.4528	143.555	84.4822	143.555	84.4592	143.555	84.4797	143.555	84.4739	143.555	84.4855	143.555	84.4917	143.555	84.4961	143.555	84.5076	143.555	84.5078	143.555	84.5181	143.555	84.5172	143.555	84.5212
147.949	85.4464	147.949	85.4366	147.949	85.4271	147.949	85.3987	147.949	85.3801	147.949	85.3352	147.949	85.3087	147.949	85.2507	147.949	85.2182	147.949	85.1511	147.949	85.1155	147.949	85.0431	147.949	85.0081	147.949	84.9342	147.949	84.904	147.949	84.8315	147.949	84.8101	147.949	84.7409	147.949	84.7318	147.949	84.6671	147.949	84.6726	147.949	84.6124	147.949	84.633	147.949	84.5773	147.949	84.6111	147.949	84.5601	147.949	84.6026	147.949	84.5574	147.949	84.6024	147.949	84.5646	147.949	84.6053	147.949	84.577	147.949	84.6075	147.949	84.59	147.949	84.6063	147.949	84.6004
153.809	85.6086	153.809	85.6023	153.809	85.5853	153.809	85.5686	153.809	85.5317	153.809	85.5109	153.809	85.4492	153.809	85.4337	153.809	85.3411	153.809	85.3422	153.809	85.2131	153.809	85.2422	153.809	85.0725	153.809	85.14	153.809	84.9285	153.809	85.0416	153.809	84.7907	153.809	84.9519	153.809	84.6685	153.809	84.8745	153.809	84.5699	153.809	84.8111	153.809	84.5002	153.809	84.7614	153.809	84.4608	153.809	84.7235	153.809	84.4492	153.809	84.6941	153.809	84.4597	153.809	84.6692	153.809	84.4851	153.809	84.645	153.809	84.5184	153.809	84.6184	153.809	84.5539	153.809	84.5879
159.668	85.6332	159.668	85.6192	159.668	85.6216	159.668	85.5817	159.668	85.5839	159.668	85.5236	159.668	85.521	159.668	85.4481	159.668	85.4353	159.668	85.3594	159.668	85.3314	159.668	85.262	159.668	85.215	159.668	85.1605	159.668	85.0928	159.668	85.06	159.668	84.9718	159.668	84.9652	159.668	84.8585	159.668	84.8801	159.668	84.7587	159.668	84.8073	159.668	84.6765	159.668	84.7479	159.668	84.6146	159.668	84.7018	159.668	84.5739	159.668	84.667	159.668	84.553	159.668	84.6409	159.668	84.5483	159.668	84.6202	159.668	84.5551	159.668	84.6021	159.668	84.5686	159.668	84.5849
165.527	85.4862	165.527	85.4748	165.527	85.473	165.527	85.4401	165.527	85.4361	165.527	85.385	165.527	85.3786	165.527	85.3143	165.527	85.3049	165.527	85.2335	165.527	85.2213	165.527	85.149	165.527	85.1347	165.527	85.0668	165.527	85.0524	165.527	84.9928	165.527	84.9809	165.527	84.9319	165.527	84.9253	165.527	84.8879	165.527	84.8883	165.527	84.8624	165.527	84.8699	165.527	84.8547	165.527	84.8677	165.527	84.8614	165.527	84.8775	165.527	84.8778	165.527	84.8942	165.527	84.8983	165.527	84.9127	165.527	84.9178	165.527	84.9284	165.527	84.9324	165.527	84.9381	165.527	84.9395
171.387	85.5995	171.387	85.5626	171.387	85.6078	171.387	85.4992	171.387	85.5868	171.387	85.4132	171.387	85.5374	171.387	85.3094	171.387	85.4625	171.387	85.1941	171.387	85.3674	171.387	85.0743	171.387	85.2592	171.387	84.9571	171.387	85.1464	171.387	84.85	171.387	85.0378	171.387	84.7592	171.387	84.9412	171.387	84.6896	171.387	84.8623	171.387	84.6441	171.387	84.8044	171.387	84.6227	171.387	84.7673	171.387	84.6226	171.387	84.7483	171.387	84.6385	171.387	84.7421	171.387	84.6638	171.387	84.7427	171.387	84.6912	171.387	84.7441	171.387	84.7153	171.387	84.7417	171.387	84.7324
177.246	85.5482	177.246	85.5493	177.246	85.5198	177.246	85.5233	177.246	85.4661	177.246	85.4722	177.246	85.3904	177.246	85.4004	177.246	85.2976	177.246	85.3144	177.246	85.1937	177.246	85.2223	177.246	85.0859	177.246	85.1331	177.246	84.9822	177.246	85.0546	177.246	84.8905	177.246	84.993	177.246	84.8179	177.246	84.9515	177.246	84.769	177.246	84.9302	177.246	84.7455	177.246	84.927	177.246	84.7463	177.246	84.9374	177.246	84.7679	177.246	84.9552	177.246	84.8047	177.246	84.9733	177.246	84.8501	177.246	84.9848	177.246	84.8968	177.246	84.984	177.246	84.9381	177.246	84.9683
183.105	85.6103	183.105	85.5931	183.105	85.5908	183.105	85.5418	183.105	85.5347	183.105	85.4614	183.105	85.4453	183.105	85.3594	183.105	85.3286	183.105	85.2445	183.105	85.1935	183.105	85.1265	183.105	85.0511	183.105	85.0151	183.105	84.9135	183.105	84.9187	183.105	84.7927	183.105	84.844	183.105	84.6981	183.105	84.7947	183.105	84.6355	183.105	84.7709	183.105	84.606	183.105	84.7695	183.105	84.6074	183.105	84.7848	183.105	84.6346	183.105	84.81	183.105	84.6807	183.105	84.8376	183.105	84.7366	183.105	84.8603	183.105	84.792	183.105	84.871	183.105	84.8368	183.105	84.8639
188.965	85.4465	188.965	85.4445	188.965	85.4146	188.965	85.4092	188.965	85.3498	188.965	85.3431	188.965	85.255	188.965	85.2513	188.965	85.1349	188.965	85.1413	188.965	84.9967	188.965	85.0227	188.965	84.8507	188.965	84.9062	188.965	84.7094	188.965	84.802	188.965	84.5868	188.965	84.7185	188.965	84.4949	188.965	84.6606	188.965	84.4401	188.965	84.629	188.965	84.4214	188.965	84.6199	188.965	84.4309	188.965	84.626	188.965	84.4582	188.965	84.6385	188.965	84.4937	188.965	84.6492	188.965	84.5316	188.965	84.6526	188.965	84.5684	188.965	84.6458	188.965	84.6016	188.965	84.6283
196.289	85.386	196.289	85.3729	196.289	85.3624	196.289	85.3243	196.289	85.3026	196.289	85.2436	196.289	85.2094	196.289	85.1359	196.289	85.0873	196.289	85.0084	196.289	84.9425	196.289	84.8703	196.289	84.7833	196.289	84.7328	196.289	84.6206	196.289	84.6081	196.289	84.4678	196.289	84.5075	196.289	84.3407	196.289	84.4391	196.289	84.2542	196.289	84.4059	196.289	84.2178	196.289	84.4059	196.289	84.2313	196.289	84.4323	196.289	84.2837	196.289	84.4745	196.289	84.3573	196.289	84.52	196.289	84.4339	196.289	84.5569	196.289	84.5	196.289	84.5764	196.289	84.5478	196.289	84.5737
203.613	85.3399	203.613	85.3137	203.613	85.3233	203.613	85.2464	203.613	85.2659	203.613	85.1432	203.613	85.173	203.613	85.0127	203.613	85.0527	203.613	84.8656	203.613	84.9147	203.613	84.7137	203.613	84.7699	203.613	84.5689	203.613	84.6286	203.613	84.4419	203.613	84.5002	203.613	84.3417	203.613	84.3929	203.613	84.2739	203.613	84.3135	203.613	84.2401	203.613	84.267	203.613	84.2375	203.613	84.2546	203.613	84.26	203.613	84.2725	203.613	84.2992	203.613	84.3107	203.613	84.3452	203.613	84.3565	203.613	84.388	203.613	84.3974	203.613	84.4188	203.613	84.4242	203.613	84.4317
210.938	85.2681	210.938	85.2624	210.938	85.2327	210.938	85.2165	210.938	85.1573	210.938	85.1336	210.938	85.0454	210.938	85.0186	210.938	84.9028	210.938	84.8783	210.938	84.7373	210.938	84.7206	210.938	84.5587	210.938	84.5554	210.938	84.3781	210.938	84.3942	210.938	84.2074	210.938	84.2498	210.938	84.0587	210.938	84.1356	210.938	83.9431	210.938	84.0616	210.938	83.8692	210.938	84.0313	210.938	83.8409	210.938	84.0387	210.938	83.8553	210.938	84.0699	210.938	83.9025	210.938	84.1077	210.938	83.9681	210.938	84.1368	210.938	84.0364	210.938	84.1466	210.938	84.0942	210.938	84.1324
218.262	84.9924	218.262	84.9733	218.262	84.9719	218.262	84.9161	218.262	84.9132	218.262	84.8247	218.262	84.82	218.262	84.7056	218.262	84.6982	218.262	84.5676	218.262	84.5563	218.262	84.4211	218.262	84.4041	218.262	84.2772	218.262	84.2523	218.262	84.1465	218.262	84.1109	218.262	84.0385	218.262	83.9893	218.262	83.9597	218.262	83.8956	218.262	83.9131	218.262	83.8352	218.262	83.8976	218.262	83.8096	218.262	83.9081	218.262	83.8149	218.262	83.9354	218.262	83.8425	218.262	83.9676	218.262	83.8824	218.262	83.9925	218.262	83.9253	218.262	84.0012	218.262	83.9637	218.262	83.9908
225.586	84.7463	225.586	84.746	225.586	84.708	225.586	84.7109	225.586	84.6296	225.586	84.6461	225.586	84.513	225.586	84.5583	225.586	84.364	225.586	84.4554	225.586	84.1933	225.586	84.3467	225.586	84.0158	225.586	84.2413	225.586	83.8485	225.586	84.1469	225.586	83.7075	225.586	84.069	225.586	83.6049	225.586	84.0102	225.586	83.5476	225.586	83.9713	225.586	83.5373	225.586	83.9512	225.586	83.5708	225.586	83.9474	225.586	83.6386	225.586	83.9557	225.586	83.7259	225.586	83.9702	225.586	83.8152	225.586	83.9837	225.586	83.8914	225.586	83.9884	225.586	83.9462	225.586	83.9776
232.91	84.5855	232.91	84.5984	232.91	84.535	232.91	84.575	232.91	84.4473	232.91	84.5182	232.91	84.3246	232.91	84.4329	232.91	84.1718	232.91	84.3265	232.91	83.9976	232.91	84.2086	232.91	83.8145	232.91	84.091	232.91	83.6375	232.91	83.9855	232.91	83.4818	232.91	83.9028	232.91	83.3603	232.91	83.8503	232.91	83.2822	232.91	83.8314	232.91	83.2536	232.91	83.8448	232.91	83.2778	232.91	83.8843	232.91	83.3544	232.91	83.9386	232.91	83.4755	232.91	83.9925	232.91	83.6235	232.91	84.0291	232.91	83.774	232.91	84.0324	232.91	83.9025	232.91	83.9911
241.699	84.4929	241.699	84.4306	241.699	84.4977	241.699	84.3204	241.699	84.4402	241.699	84.1759	241.699	84.3207	241.699	84.0131	241.699	84.1454	241.699	83.848	241.699	83.9269	241.699	83.6942	241.699	83.6861	241.699	83.562	241.699	83.4511	241.699	83.4585	241.699	83.2535	241.699	83.3894	241.699	83.1187	241.699	83.359	241.699	83.0566	241.699	83.3686	241.699	83.0593	241.699	83.4129	241.699	83.108	241.699	83.4795	241.699	83.185	241.699	83.5518	241.699	83.2793	241.699	83.6139	241.699	83.383	241.699	83.6535	241.699	83.4862	241.699	83.6626	241.699	83.575	241.699	83.6363
250.488	84.6028	250.488	84.5581	250.488	84.5863	250.488	84.4561	250.488	84.5089	250.488	84.3039	250.488	84.3759	250.488	84.1114	250.488	84.1979	250.488	83.892	250.488	83.989	250.488	83.6636	250.488	83.7648	250.488	83.4478	250.488	83.5409	250.488	83.2651	250.488	83.3334	250.488	83.1282	250.488	83.1608	250.488	83.0365	250.488	83.0435	250.488	82.9795	250.488	82.9959	250.488	82.9463	250.488	83.0163	250.488	82.9326	250.488	83.0821	250.488	82.9404	250.488	83.1589	250.488	82.9719	250.488	83.215	250.488	83.0245	250.488	83.2325	250.488	83.0904	250.488	83.2098	250.488	83.1573
259.277	84.5737	259.277	84.5721	259.277	84.5145	259.277	84.5088	259.277	84.3972	259.277	84.3858	259.277	84.2267	259.277	84.2085	259.277	84.0114	259.277	83.9872	259.277	83.7625	259.277	83.7371	259.277	83.4946	259.277	83.4789	259.277	83.2232	259.277	83.2371	259.277	82.9644	259.277	83.0371	259.277	82.7353	259.277	82.8989	259.277	82.5551	259.277	82.8313	259.277	82.4429	259.277	82.8279	259.277	82.4109	259.277	82.8689	259.277	82.4558	259.277	82.9282	259.277	82.556	259.277	82.9809	259.277	82.6802	259.277	83.0092	259.277	82.8002	259.277	83.0052	259.277	82.8985	259.277	82.9678
268.066	84.1571	268.066	84.1183	268.066	84.1467	268.066	84.0326	268.066	84.0847	268.066	83.9053	268.066	83.9671	268.066	83.7463	268.066	83.7907	268.066	83.5701	268.066	83.5581	268.066	83.3929	268.066	83.2842	268.066	83.2297	268.066	82.9968	268.066	83.0902	268.066	82.728	268.066	82.9796	268.066	82.5011	268.066	82.8992	268.066	82.3207	268.066	82.8483	268.066	82.1765	268.066	82.8223	268.066	82.0587	268.066	82.8112	268.066	81.9729	268.066	82.7988	268.066	81.9395	268.066	82.7655	268.066	81.9776	268.066	82.6938	268.066	82.0871	268.066	82.5761	268.066	82.2457	268.066	82.4194
276.855	84.1955	276.855	84.1562	276.855	84.169	276.855	84.049	276.855	84.0842	276.855	83.8788	276.855	83.9503	276.855	83.6542	276.855	83.772	276.855	83.3863	276.855	83.549	276.855	83.0906	276.855	83.2816	276.855	82.7933	276.855	82.9837	276.855	82.5344	276.855	82.6922	276.855	82.3598	276.855	82.4668	276.855	82.299	276.855	82.3671	276.855	82.3449	276.855	82.413	276.855	82.4569	276.855	82.5631	276.855	82.587	276.855	82.7374	276.855	82.7033	276.855	82.8678	276.855	82.795	276.855	82.9307	276.855	82.8607	276.855	82.9433	276.855	82.9016	276.855	82.9356	276.855	82.9231
287.109	83.794	287.109	83.8039	287.109	83.7358	287.109	83.7694	287.109	83.6313	287.109	83.6983	287.109	83.4897	287.109	83.6005	287.109	83.3255	287.109	83.4861	287.109	83.1524	287.109	83.3603	287.109	82.976	287.109	83.2206	287.109	82.7902	287.109	83.0589	287.109	82.5804	287.109	82.8723	287.109	82.3336	287.109	82.6784	287.109	82.0575	287.109	82.5207	287.109	81.7995	287.109	82.4534	287.109	81.6436	287.109	82.5043	287.109	81.6607	287.109	82.6477	287.109	81.8497	287.109	82.8156	287.109	82.1391	287.109	82.936	287.109	82.4436	287.109	82.9632	287.109	82.703	287.109	82.8829
297.363	83.9024	297.363	83.8122	297.363	83.902	297.363	83.6532	297.363	83.7934	297.363	83.4455	297.363	83.5733	297.363	83.2076	297.363	83.2585	297.363	82.9624	297.363	82.8856	297.363	82.7444	297.363	82.5022	297.363	82.5973	297.363	82.1566	297.363	82.5554	297.363	81.892	297.363	82.6155	297.363	81.7402	297.363	82.7281	297.363	81.7049	297.363	82.822	297.363	81.7538	297.363	82.8458	297.363	81.8404	297.363	82.7957	297.363	81.9433	297.363	82.7148	297.363	82.0777	297.363	82.6633	297.363	82.2615	297.363	82.673	297.363	82.4717	297.363	82.7171	297.363	82.645	297.363	82.7266
307.617	83.631	307.617	83.6098	307.617	83.6202	307.617	83.547	307.617	83.5763	307.617	83.4311	307.617	83.4859	307.617	83.2553	307.617	83.3324	307.617	83.0186	307.617	83.1119	307.617	82.7253	307.617	82.8439	307.617	82.3905	307.617	82.565	307.617	82.0538	307.617	82.31	307.617	81.7865	307.617	82.0987	307.617	81.6645	307.617	81.9437	307.617	81.7119	307.617	81.8621	307.617	81.8755	307.617	81.8675	307.617	82.0659	307.617	81.9464	307.617	82.2114	307.617	82.0538	307.617	82.2815	307.617	82.1409	307.617	82.2843	307.617	82.1866	307.617	82.2525	307.617	82.204	307.617	82.2211
319.336	83.8626	319.336	83.7929	319.336	83.8243	319.336	83.6113	319.336	83.6964	319.336	83.3306	319.336	83.5028	319.336	82.9789	319.336	83.2622	319.336	82.5918	319.336	82.9811	319.336	82.2024	319.336	82.6587	319.336	81.8313	319.336	82.3023	319.336	81.4916	319.336	81.9442	319.336	81.2108	319.336	81.6404	319.336	81.0483	319.336	81.4472	319.336	81.0717	319.336	81.3877	319.336	81.29	319.336	81.4415	319.336	81.6173	319.336	81.5613	319.336	81.9252	319.336	81.6979	319.336	82.1207	319.336	81.8169	319.336	82.1809	319.336	81.9083	319.336	82.1425	319.336	81.9845	319.336	82.0638
329.59	83.3264	329.59	83.2967	329.59	83.3014	329.59	83.2131	329.59	83.2137	329.59	83.0697	329.59	83.057	329.59	82.865	329.59	82.8375	329.59	82.6116	329.59	82.5742	329.59	82.3356	329.59	82.286	329.59	82.0641	329.59	81.9794	329.59	81.8082	329.59	81.6531	329.59	81.5634	329.59	81.3176	329.59	81.3333	329.59	81.0105	329.59	81.1592	329.59	80.7884	329.59	81.115	329.59	80.6954	329.59	81.2423	329.59	80.7319	329.59	81.4885	329.59	80.8605	329.59	81.7343	329.59	81.0422	329.59	81.8742	329.59	81.2587	329.59	81.8635	329.59	81.4967	329.59	81.7189
341.309	83.4987	341.309	83.4438	341.309	83.4486	341.309	83.2961	341.309	83.2915	341.309	83.0738	341.309	83.0355	341.309	82.7963	341.309	82.6966	341.309	82.4854	341.309	82.3001	341.309	82.1709	341.309	81.8865	341.309	81.8885	341.309	81.5131	341.309	81.6626	341.309	81.2372	341.309	81.4872	341.309	81.0914	341.309	81.3322	341.309	81.0709	341.309	81.1747	341.309	81.1457	341.309	81.0312	341.309	81.2827	341.309	80.9598	341.309	81.4565	341.309	81.0214	341.309	81.6438	341.309	81.2217	341.309	81.8138	341.309	81.4936	341.309	81.9321	341.309	81.7441	341.309	81.9704	341.309	81.9099
353.027	83.4641	353.027	83.4235	353.027	83.4274	353.027	83.3182	353.027	83.3033	353.027	83.1572	353.027	83.0885	353.027	82.9429	353.027	82.7883	353.027	82.6703	353.027	82.416	353.027	82.3345	353.027	81.9925	353.027	81.9463	353.027	81.5457	353.027	81.5511	353.027	81.11	353.027	81.2279	353.027	80.7239	353.027	81.0514	353.027	80.4276	353.027	81.0357	353.027	80.254	353.027	81.1228	353.027	80.2133	353.027	81.2323	353.027	80.2858	353.027	81.3141	353.027	80.4413	353.027	81.3606	353.027	80.6548	353.027	81.3797	353.027	80.8969	353.027	81.3627	353.027	81.1215	353.027	81.2825
366.211	83.3801	366.211	83.3217	366.211	83.3499	366.211	83.1535	366.211	83.2525	366.211	82.8719	366.211	83.0957	366.211	82.502	366.211	82.873	366.211	82.0949	366.211	82.5738	366.211	81.7097	366.211	82.1985	366.211	81.3887	366.211	81.7699	366.211	81.146	366.211	81.3327	366.211	80.9807	366.211	80.9403	366.211	80.8952	366.211	80.6355	366.211	80.8958	366.211	80.4471	366.211	80.9767	366.211	80.402	366.211	81.1119	366.211	80.5201	366.211	81.2661	366.211	80.7776	366.211	81.4097	366.211	81.0924	366.211	81.5241	366.211	81.3667	366.211	81.5964	366.211	81.5415	366.211	81.6105
379.395	83.5417	379.395	83.5149	379.395	83.4789	379.395	83.3909	379.395	83.3355	379.395	83.1623	379.395	83.125	379.395	82.8248	379.395	82.8623	379.395	82.3832	379.395	82.5555	379.395	81.8608	379.395	82.2012	379.395	81.31	379.395	81.7916	379.395	80.8139	379.395	81.338	379.395	80.4616	379.395	80.8981	379.395	80.3118	379.395	80.5832	379.395	80.3742	379.395	80.4977	379.395	80.6103	379.395	80.6391	379.395	80.9451	379.395	80.8887	379.395	81.2924	379.395	81.1245	379.395	81.5816	379.395	81.3079	379.395	81.7672	379.395	81.4684	379.395	81.8269	379.395	81.6301	379.395	81.7678
392.578	83.4732	392.578	83.3588	392.578	83.4952	392.578	83.1836	392.578	83.3971	392.578	82.9659	392.578	83.167	392.578	82.7065	392.578	82.812	392.578	82.3989	392.578	82.3578	392.578	82.041	392.578	81.8545	392.578	81.6376	392.578	81.372	392.578	81.2014	392.578	80.9653	392.578	80.7668	392.578	80.6344	392.578	80.4047	392.578	80.3452	392.578	80.2054	392.578	80.1053	392.578	80.2172	392.578	80	392.578	80.3951	392.578	80.1134	392.578	80.6279	392.578	80.4123	392.578	80.8235	392.578	80.7569	392.578	80.9589	392.578	81.0142	392.578	81.0566	392.578	81.1297	392.578	81.1254
405.762	83.2223	405.762	83.1183	405.762	83.2339	405.762	82.9209	405.762	83.1569	405.762	82.6468	405.762	82.9841	405.762	82.3254	405.762	82.701	405.762	81.9727	405.762	82.3002	405.762	81.5816	405.762	81.7917	405.762	81.1519	405.762	81.211	405.762	80.7329	405.762	80.6326	405.762	80.4151	405.762	80.1708	405.762	80.2596	405.762	79.9257	405.762	80.2474	405.762	79.9014	405.762	80.3256	405.762	80.0102	405.762	80.468	405.762	80.1717	405.762	80.662	405.762	80.3681	405.762	80.8683	405.762	80.5994	405.762	81.0303	405.762	80.8303	405.762	81.111	405.762	81.0077	405.762	81.1029
420.41	83.5579	420.41	83.5708	420.41	83.4334	420.41	83.4223	420.41	83.2405	420.41	83.0905	420.41	82.9915	420.41	82.6072	420.41	82.67	420.41	82.0541	420.41	82.2526	420.41	81.5209	420.41	81.7318	420.41	81.048	420.41	81.125	420.41	80.6201	420.41	80.4791	420.41	80.233	420.41	79.8809	420.41	79.9538	420.41	79.4616	420.41	79.8794	420.41	79.3355	420.41	80.0317	420.41	79.485	420.41	80.3402	420.41	79.7626	420.41	80.7099	420.41	80.0416	420.41	81.0512	420.41	80.3068	420.41	81.2785	420.41	80.5995	420.41	81.3287	420.41	80.9179	420.41	81.1911
435.059	83.5029	435.059	83.3796	435.059	83.4996	435.059	83.1672	435.059	83.346	435.059	82.8877	435.059	83.0544	435.059	82.5344	435.059	82.666	435.059	82.0856	435.059	82.2194	435.059	81.5307	435.059	81.7264	435.059	80.8925	435.059	81.178	435.059	80.2439	435.059	80.5654	435.059	79.7162	435.059	79.9054	435.059	79.4486	435.059	79.2888	435.059	79.4818	435.059	78.9232	435.059	79.738	435.059	78.999	435.059	80.1087	435.059	79.4407	435.059	80.5115	435.059	79.9925	435.059	80.8843	435.059	80.4874	435.059	81.1739	435.059	80.8857	435.059	81.3357	435.059	81.1794	435.059	81.3388
451.172	83.8507	451.172	83.7739	451.172	83.8007	451.172	83.552	451.172	83.6459	451.172	83.1831	451.172	83.3991	451.172	82.6876	451.172	83.0582	451.172	82.1078	451.172	82.6099	451.172	81.504	451.172	82.0464	451.172	80.9318	451.172	81.397	451.172	80.4	451.172	80.7515	451.172	79.8746	451.172	80.208	451.172	79.3801	451.172	79.7672	451.172	79.0839	451.172	79.3736	451.172	79.152	451.172	79.107	451.172	79.5146	451.172	79.1543	451.172	79.9598	451.172	79.488	451.172	80.3443	451.172	79.865	451.172	80.5976	451.172	80.1516	451.172	80.6731	451.172	80.3801	451.172	80.5757
465.82	83.6899	465.82	83.6572	465.82	83.646	465.82	83.5158	465.82	83.5378	465.82	83.241	465.82	83.3463	465.82	82.8298	465.82	83.0397	465.82	82.2943	465.82	82.6058	465.82	81.6492	465.82	82.0623	465.82	80.9252	465.82	81.434	465.82	80.1991	465.82	80.7446	465.82	79.594	465.82	80.0688	465.82	79.2238	465.82	79.5539	465.82	79.1405	465.82	79.2892	465.82	79.3199	465.82	79.2118	465.82	79.6652	465.82	79.2663	465.82	80.0498	465.82	79.5148	465.82	80.3865	465.82	79.9658	465.82	80.6485	465.82	80.4529	465.82	80.8295	465.82	80.7854	465.82	80.8968
483.398	83.9193	483.398	83.8409	483.398	83.9062	483.398	83.669	483.398	83.7903	483.398	83.3841	483.398	83.5625	483.398	82.969	483.398	83.2243	483.398	82.4448	483.398	82.7808	483.398	81.8701	483.398	82.2242	483.398	81.2843	483.398	81.5372	483.398	80.6647	483.398	80.7262	483.398	79.9771	483.398	79.8462	483.398	79.2663	483.398	79.005	483.398	78.7041	483.398	78.3785	483.398	78.541	483.398	78.1768	483.398	78.8819	483.398	78.4505	483.398	79.5093	483.398	78.994	483.398	80.0913	483.398	79.5574	483.398	80.4474	483.398	80.0108	483.398	80.5684	483.398	80.3268	483.398	80.514
499.512	83.9061	499.512	83.6963	499.512	83.9918	499.512	83.4337	499.512	83.908	499.512	83.1597	499.512	83.6438	499.512	82.8354	499.512	83.2088	499.512	82.3743	499.512	82.6341	499.512	81.7417	499.512	81.9774	499.512	81.0052	499.512	81.2856	499.512	80.2761	499.512	80.5464	499.512	79.6447	499.512	79.7436	499.512	79.2223	499.512	78.994	499.512	79.137	499.512	78.5521	499.512	79.3569	499.512	78.5642	499.512	79.6976	499.512	78.928	499.512	80.0493	499.512	79.4546	499.512	80.4109	499.512	80.0017	499.512	80.7589	499.512	80.4854	499.512	80.9985	499.512	80.8501	499.512	81.0361
517.09	84.1046	517.09	84.0268	517.09	84.0481	517.09	83.773	517.09	83.8931	517.09	83.3404	517.09	83.6552	517.09	82.7891	517.09	83.3304	517.09	82.172	517.09	82.8912	517.09	81.4438	517.09	82.3118	517.09	80.5181	517.09	81.6244	517.09	79.4519	517.09	80.9258	517.09	78.5366	517.09	80.2671	517.09	78.0785	517.09	79.5925	517.09	78.1033	517.09	78.9177	517.09	78.4585	517.09	78.5099	517.09	78.9878	517.09	78.6294	517.09	79.5473	517.09	79.1268	517.09	80.0357	517.09	79.6836	517.09	80.4026	517.09	80.1442	517.09	80.6124	517.09	80.4701	517.09	80.6351
536.133	83.8766	536.133	83.8541	536.133	83.7771	536.133	83.6941	536.133	83.5795	536.133	83.3841	536.133	83.3048	536.133	82.9273	536.133	82.9463	536.133	82.3682	536.133	82.466	536.133	81.7703	536.133	81.8163	536.133	81.1353	536.133	80.9719	536.133	80.3837	536.133	79.9707	536.133	79.4724	536.133	78.9506	536.133	78.5234	536.133	78.1463	536.133	77.8441	536.133	77.7656	536.133	77.7486	536.133	77.8082	536.133	78.2386	536.133	78.1255	536.133	78.9884	536.133	78.6207	536.133	79.6676	536.133	79.2195	536.133	80.1168	536.133	79.7732	536.133	80.3216	536.133	80.1506	536.133	80.3267
555.176	84.1148	555.176	84.0558	555.176	84.0937	555.176	83.9228	555.176	83.9962	555.176	83.7088	555.176	83.8091	555.176	83.3475	555.176	83.5008	555.176	82.7477	555.176	83.0531	555.176	81.8939	555.176	82.4648	555.176	80.8871	555.176	81.7331	555.176	79.8574	555.176	80.8714	555.176	78.8652	555.176	79.9163	555.176	77.9949	555.176	78.879	555.176	77.5222	555.176	77.8281	555.176	77.6827	555.176	77.1766	555.176	78.2808	555.176	77.4033	555.176	78.9662	555.176	78.2072	555.176	79.5745	555.176	78.9968	555.176	80.0448	555.176	79.5781	555.176	80.29	555.176	79.995	555.176	80.257
574.219	84.1359	574.219	83.9703	574.219	84.1838	574.219	83.7388	574.219	84.0578	574.219	83.4445	574.219	83.7603	574.219	83.0592	574.219	83.3383	574.219	82.5565	574.219	82.8242	574.219	81.9283	574.219	82.2273	574.219	81.1583	574.219	81.5322	574.219	80.2052	574.219	80.6588	574.219	79.0917	574.219	79.5264	574.219	78.0146	574.219	78.2575	574.219	77.2678	574.219	77.262	574.219	77.0982	574.219	76.9368	574.219	77.61	574.219	77.3064	574.219	78.4952	574.219	78.0973	574.219	79.2935	574.219	78.9773	574.219	79.8556	574.219	79.7199	574.219	80.219	574.219	80.2054	574.219	80.3644
594.727	84.1093	594.727	84.0538	594.727	84.0256	594.727	83.8318	594.727	83.8428	594.727	83.4656	594.727	83.5849	594.727	83.0118	594.727	83.2516	594.727	82.4889	594.727	82.7993	594.727	81.838	594.727	82.1436	594.727	80.9909	594.727	81.2545	594.727	79.9571	594.727	80.2448	594.727	78.8423	594.727	79.2568	594.727	77.9041	594.727	78.2759	594.727	77.5176	594.727	77.2608	594.727	77.6982	594.727	76.4613	594.727	78.1178	594.727	76.3625	594.727	78.6905	594.727	77.0524	594.727	79.4005	594.727	78.075	594.727	79.997	594.727	79.0237	594.727	80.257	594.727	79.734	594.727	80.155
615.234	84.457	615.234	84.384	615.234	84.4409	615.234	84.2332	615.234	84.3461	615.234	83.9906	615.234	84.167	615.234	83.5906	615.234	83.8513	615.234	82.9991	615.234	83.3622	615.234	82.2624	615.234	82.7111	615.234	81.4192	615.234	81.8922	615.234	80.4442	615.234	80.8832	615.234	79.3477	615.234	79.7265	615.234	78.2324	615.234	78.4783	615.234	77.2668	615.234	77.2161	615.234	76.846	615.234	76.3763	615.234	77.3421	615.234	76.4634	615.234	78.3591	615.234	77.1918	615.234	79.265	615.234	78.061	615.234	79.8101	615.234	78.8225	615.234	79.9625	615.234	79.3931	615.234	79.7863
637.207	84.2524	637.207	84.2015	637.207	84.1918	637.207	84.0339	637.207	84.0458	637.207	83.7896	637.207	83.8441	637.207	83.4887	637.207	83.5868	637.207	83.0503	637.207	83.2296	637.207	82.4006	637.207	82.7471	637.207	81.616	637.207	82.1192	637.207	80.7786	637.207	81.2428	637.207	79.7145	637.207	80.0406	637.207	78.2304	637.207	78.6673	637.207	76.7373	637.207	77.3896	637.207	76.2682	637.207	76.4223	637.207	76.7529	637.207	76.2776	637.207	77.3326	637.207	77.1729	637.207	77.8443	637.207	78.3866	637.207	78.4414	637.207	79.3138	637.207	79.1074	637.207	79.7442	637.207	79.6303
659.18	84.2113	659.18	84.0825	659.18	84.223	659.18	83.8438	659.18	84.1213	659.18	83.5205	659.18	83.9084	659.18	83.1636	659.18	83.5767	659.18	82.7855	659.18	83.1158	659.18	82.2527	659.18	82.5156	659.18	81.3788	659.18	81.7779	659.18	80.1538	659.18	80.8935	659.18	78.8456	659.18	79.7762	659.18	77.7502	659.18	78.3879	659.18	76.8759	659.18	77.02	659.18	76.3625	659.18	76.1373	659.18	76.8294	659.18	75.8599	659.18	78.2146	659.18	76.3066	659.18	79.5551	659.18	77.3735	659.18	80.2998	659.18	78.4923	659.18	80.4166	659.18	79.394	659.18	80.0602
682.617	84.5228	682.617	84.4509	682.617	84.5787	682.617	84.3934	682.617	84.5177	682.617	84.2292	682.617	84.2886	682.617	83.7999	682.617	83.9276	682.617	83.1105	682.617	83.484	682.617	82.3178	682.617	82.9543	682.617	81.5001	682.617	82.2916	682.617	80.5279	682.617	81.4155	682.617	79.2137	682.617	80.2607	682.617	77.6664	682.617	78.8342	682.617	76.5752	682.617	77.1748	682.617	76.4261	682.617	75.5868	682.617	76.9533	682.617	75.1379	682.617	77.9276	682.617	76.212	682.617	78.9531	682.617	77.6372	682.617	79.6079	682.617	78.7117	682.617	79.8202	682.617	79.3733	682.617	79.7208
707.52	84.3742	707.52	84.254	707.52	84.3636	707.52	84.0672	707.52	84.2383	707.52	83.8975	707.52	84.0695	707.52	83.7042	707.52	83.8864	707.52	83.3234	707.52	83.6099	707.52	82.6904	707.52	83.13	707.52	81.8769	707.52	82.4266	707.52	80.8885	707.52	81.5558	707.52	79.6966	707.52	80.5085	707.52	78.3602	707.52	79.184	707.52	76.923	707.52	77.5864	707.52	75.7317	707.52	76.1126	707.52	75.6203	707.52	75.6511	707.52	76.3901	707.52	76.3583	707.52	77.2037	707.52	77.3995	707.52	77.9092	707.52	78.3627	707.52	78.6053	707.52	79.0256	707.52	79.0945
732.422	83.9889	732.422	84.0352	732.422	83.9062	732.422	83.9104	732.422	83.8323	732.422	83.5655	732.422	83.7439	732.422	83.1602	732.422	83.5738	732.422	82.7579	732.422	83.2323	732.422	82.1708	732.422	82.6748	732.422	81.2662	732.422	81.9107	732.422	80.1211	732.422	80.935	732.422	78.7855	732.422	79.6891	732.422	77.1377	732.422	78.2043	732.422	75.3571	732.422	76.7762	732.422	74.6756	732.422	75.5672	732.422	75.6699	732.422	74.5798	732.422	76.9282	732.422	74.922	732.422	78.0253	732.422	76.5719	732.422	79.0431	732.422	77.8143	732.422	79.4801	732.422	78.4832	732.422	79.1153
757.324	84.1928	757.324	84.0722	757.324	84.1852	757.324	83.8389	757.324	84.0857	757.324	83.5782	757.324	83.8998	757.324	83.3476	757.324	83.6395	757.324	83.1003	757.324	83.3207	757.324	82.6853	757.324	82.8875	757.324	81.9958	757.324	82.2429	757.324	81.064	757.324	81.3702	757.324	79.8049	757.324	80.3844	757.324	77.9864	757.324	79.1978	757.324	75.8542	757.324	77.343	757.324	74.1562	757.324	74.9713	757.324	73.5727	757.324	74.0427	757.324	75.1318	757.324	74.5753	757.324	77.4285	757.324	75.4202	757.324	78.8639	757.324	77.0042	757.324	79.4092	757.324	78.59	757.324	79.3658
785.156	84.9894	785.156	84.8336	785.156	85.1915	785.156	84.7831	785.156	85.3041	785.156	84.7394	785.156	85.1836	785.156	84.4658	785.156	84.8315	785.156	83.8702	785.156	84.4452	785.156	83.1611	785.156	84.1469	785.156	82.4873	785.156	83.8004	785.156	81.6542	785.156	83.1901	785.156	80.4445	785.156	82.1264	785.156	78.8743	785.156	80.5259	785.156	76.9678	785.156	78.6384	785.156	75.0356	785.156	76.8832	785.156	74.6509	785.156	75.4049	785.156	75.8591	785.156	75.0365	785.156	77.2792	785.156	76.192	785.156	78.5465	785.156	77.3019	785.156	79.1108	785.156	78.0355	785.156	78.7539
811.523	85.3404	811.523	85.2877	811.523	85.3165	811.523	85.1197	811.523	85.2015	811.523	84.8227	811.523	85.0669	811.523	84.4825	811.523	85.0252	811.523	84.1612	811.523	84.9412	811.523	83.8391	811.523	84.6149	811.523	83.3718	811.523	84.0714	811.523	82.4808	811.523	83.3553	811.523	81.0099	811.523	82.3829	811.523	79.0832	811.523	81.0455	811.523	77.0034	811.523	79.4042	811.523	75.5436	811.523	77.5422	811.523	75.5909	811.523	75.6666	811.523	76.7407	811.523	75.1235	811.523	78.2127	811.523	76.6192	811.523	79.2621	811.523	78.1764	811.523	79.5616	811.523	78.9942	811.523	79.3801
840.82	84.5665	840.82	84.4474	840.82	84.6546	840.82	84.3111	840.82	84.6489	840.82	84.1212	840.82	84.5537	840.82	84.0233	840.82	84.3623	840.82	83.8884	840.82	84.091	840.82	83.2926	840.82	83.7895	840.82	82.2856	840.82	83.441	840.82	81.2436	840.82	82.9734	840.82	80.2281	840.82	82.3175	840.82	79.1543	840.82	81.2493	840.82	77.9897	840.82	79.6347	840.82	75.9879	840.82	77.6883	840.82	74.1678	840.82	75.9811	840.82	75.6374	840.82	75.1385	840.82	77.3065	840.82	76.0666	840.82	78.1682	840.82	77.899	840.82	79.0149	840.82	79.2309	840.82	79.575
870.117	84.8049	870.117	84.942	870.117	84.5937	870.117	84.6872	870.117	84.5749	870.117	84.2182	870.117	84.4602	870.117	83.7779	870.117	84.113	870.117	83.5294	870.117	83.7819	870.117	83.473	870.117	83.6699	870.117	83.2457	870.117	83.5613	870.117	82.5984	870.117	82.9447	870.117	81.6076	870.117	81.87	870.117	79.5936	870.117	80.8087	870.117	76.3249	870.117	79.3171	870.117	74.2265	870.117	76.8529	870.117	74.3152	870.117	75.3637	870.117	75.3572	870.117	76.2305	870.117	78.0213	870.117	77.4666	870.117	79.7073	870.117	78.7377	870.117	80.0738	870.117	79.7344	870.117	80.0777
900.879	84.9325	900.879	84.612	900.879	85.0496	900.879	84.5165	900.879	84.9778	900.879	84.5119	900.879	84.7338	900.879	84.1745	900.879	84.3733	900.879	83.8043	900.879	84.2006	900.879	83.491	900.879	83.849	900.879	82.7546	900.879	83.202	900.879	81.5656	900.879	82.9341	900.879	80.3748	900.879	82.2405	900.879	79.5202	900.879	80.1683	900.879	78.4456	900.879	78.3651	900.879	75.9	900.879	77.5929	900.879	73.9479	900.879	75.4797	900.879	74.9097	900.879	74.5975	900.879	76.6216	900.879	76.2611	900.879	78.6461	900.879	77.7271	900.879	79.6113	900.879	78.7854	900.879	79.487
933.105	84.8118	933.105	84.8303	933.105	85.0181	933.105	84.5694	933.105	84.721	933.105	83.6975	933.105	84.1709	933.105	83.4475	933.105	84.0275	933.105	83.6201	933.105	83.5962	933.105	83.2023	933.105	83.2245	933.105	82.7387	933.105	83.3325	933.105	82.6709	933.105	82.6167	933.105	81.9944	933.105	81.4815	933.105	79.77	933.105	81.1762	933.105	76.7723	933.105	79.8171	933.105	74.8078	933.105	76.8033	933.105	73.1549	933.105	74.4209	933.105	74.5247	933.105	72.3326	933.105	76.4469	933.105	74.7922	933.105	78.1743	933.105	77.6688	933.105	79.8048	933.105	78.825	933.105	79.9958
965.332	84.8872	965.332	84.7093	965.332	84.5059	965.332	84.3299	965.332	84.6294	965.332	84.4393	965.332	84.5624	965.332	84.0347	965.332	83.6813	965.332	83.1625	965.332	83.4839	965.332	82.8779	965.332	83.457	965.332	82.5835	965.332	82.609	965.332	81.6054	965.332	82.5838	965.332	80.582	965.332	82.4933	965.332	80.0727	965.332	80.4399	965.332	79.0192	965.332	78.5639	965.332	75.5834	965.332	77.5186	965.332	71.4689	965.332	73.757	965.332	72.6525	965.332	73.1614	965.332	75.371	965.332	75.132	965.332	76.9379	965.332	76.5184	965.332	77.3977	965.332	78.2975	965.332	78.3548
1,000.49	84.3374	1,000.49	84.1566	1,000.49	84.7184	1,000.49	84.0003	1,000.49	84.0478	1,000.49	82.9428	1,000.49	83.0381	1,000.49	82.4312	1,000.49	82.9748	1,000.49	82.8223	1,000.49	82.581	1,000.49	82.3964	1,000.49	81.9325	1,000.49	82.1797	1,000.49	82.1371	1,000.49	82.6947	1,000.49	81.6438	1,000.49	82.1723	1,000.49	80.7127	1,000.49	80.3615	1,000.49	80.6907	1,000.49	78.1699	1,000.49	79.4197	1,000.49	75.8323	1,000.49	75.838	1,000.49	74.1074	1,000.49	72.9473	1,000.49	73.8098	1,000.49	70.6024	1,000.49	74.0868	1,000.49	72.0825	1,000.49	76.861	1,000.49	76.4789	1,000.49	78.5221	1,000.49	77.5512	1,000.49	77.9701
1,035.64	84.689	1,035.64	84.5093	1,035.64	83.9847	1,035.64	83.649	1,035.64	84.025	1,035.64	83.663	1,035.64	84.127	1,035.64	83.3626	1,035.64	83.071	1,035.64	82.2057	1,035.64	82.0892	1,035.64	81.9268	1,035.64	81.847	1,035.64	81.6009	1,035.64	81.085	1,035.64	80.4719	1,035.64	80.5863	1,035.64	79.7955	1,035.64	80.8134	1,035.64	79.2448	1,035.64	79.9182	1,035.64	77.9174	1,035.64	77.533	1,035.64	76.1947	1,035.64	74.9978	1,035.64	73.0131	1,035.64	73.1806	1,035.64	70.8831	1,035.64	72.5823	1,035.64	74.6285	1,035.64	72.0602	1,035.64	76.2803	1,035.64	73.5199	1,035.64	76.7706	1,035.64	76.4729	1,035.64	77.5701
1,072.27	84.216	1,072.27	83.9563	1,072.27	84.2686	1,072.27	83.7171	1,072.27	83.8866	1,072.27	82.9742	1,072.27	83.1815	1,072.27	81.6635	1,072.27	82.3843	1,072.27	81.3075	1,072.27	81.6437	1,072.27	81.0515	1,072.27	81.5566	1,072.27	79.8512	1,072.27	81.011	1,072.27	79.9161	1,072.27	79.6142	1,072.27	80.2135	1,072.27	80.0938	1,072.27	79.393	1,072.27	80.6659	1,072.27	77.5125	1,072.27	78.8057	1,072.27	73.9087	1,072.27	76.1734	1,072.27	70.9212	1,072.27	73.2609	1,072.27	72.4944	1,072.27	70.3396	1,072.27	74.6562	1,072.27	72.0527	1,072.27	76.6466	1,072.27	74.1964	1,072.27	77.0168	1,072.27	76.6785	1,072.27	77.2937
1,108.89	83.9832	1,108.89	84.1421	1,108.89	84.0359	1,108.89	83.6301	1,108.89	84.1379	1,108.89	82.612	1,108.89	83.3384	1,108.89	81.8464	1,108.89	82.2968	1,108.89	80.7975	1,108.89	81.6857	1,108.89	80.0662	1,108.89	80.2298	1,108.89	80.2469	1,108.89	79.306	1,108.89	79.7921	1,108.89	80.2945	1,108.89	78.5023	1,108.89	79.3731	1,108.89	77.037	1,108.89	77.1961	1,108.89	76.0714	1,108.89	76.7684	1,108.89	75.2089	1,108.89	74.6841	1,108.89	71.439	1,108.89	71.2129	1,108.89	70.9781	1,108.89	70.4095	1,108.89	72.6398	1,108.89	71.491	1,108.89	75.0837	1,108.89	75.145	1,108.89	77.8208	1,108.89	74.6173	1,108.89	76.5051
1,148.44	84.0269	1,148.44	83.9369	1,148.44	83.8695	1,148.44	83.1407	1,148.44	83.6439	1,148.44	82.421	1,148.44	82.8498	1,148.44	81.3974	1,148.44	81.8471	1,148.44	80.4714	1,148.44	80.8272	1,148.44	80.0178	1,148.44	80.3739	1,148.44	78.6427	1,148.44	80.3051	1,148.44	78.4222	1,148.44	79.1045	1,148.44	78.0528	1,148.44	77.8298	1,148.44	76.8756	1,148.44	78.5212	1,148.44	76.1601	1,148.44	78.3233	1,148.44	71.4324	1,148.44	75.0921	1,148.44	68.9217	1,148.44	72.1657	1,148.44	68.9566	1,148.44	69.6777	1,148.44	71.3317	1,148.44	67.8966	1,148.44	74.7256	1,148.44	70.8244	1,148.44	74.5705	1,148.44	75.7932	1,148.44	76.7272
1,189.45	83.5918	1,189.45	83.4852	1,189.45	83.6738	1,189.45	83.1262	1,189.45	83.3482	1,189.45	82.4002	1,189.45	82.7266	1,189.45	81.3187	1,189.45	82.2715	1,189.45	80.4284	1,189.45	81.2309	1,189.45	79.253	1,189.45	80.5429	1,189.45	78.437	1,189.45	79.3767	1,189.45	77.8913	1,189.45	78.0673	1,189.45	76.7282	1,189.45	79.0618	1,189.45	76.8005	1,189.45	78.4518	1,189.45	76.2993	1,189.45	77.156	1,189.45	74.0206	1,189.45	76.1642	1,189.45	71.4235	1,189.45	71.4014	1,189.45	68.4076	1,189.45	70.034	1,189.45	71.5997	1,189.45	68.7038	1,189.45	73.3401	1,189.45	73.0114	1,189.45	76.3271	1,189.45	74.0969	1,189.45	75.6228
1,230.47	84.4567	1,230.47	83.9852	1,230.47	84.4018	1,230.47	83.4816	1,230.47	84.0154	1,230.47	82.6936	1,230.47	83.3215	1,230.47	81.498	1,230.47	82.4081	1,230.47	80.4353	1,230.47	81.4331	1,230.47	79.5012	1,230.47	80.166	1,230.47	79.0655	1,230.47	79.6218	1,230.47	78.492	1,230.47	79.4398	1,230.47	78.56	1,230.47	78.8747	1,230.47	78.2249	1,230.47	78.6326	1,230.47	75.9762	1,230.47	77.5682	1,230.47	73.667	1,230.47	76.2674	1,230.47	69.3712	1,230.47	73.6162	1,230.47	66.5894	1,230.47	64.9423	1,230.47	69.1	1,230.47	67.5671	1,230.47	73.8132	1,230.47	69.9452	1,230.47	75.067	1,230.47	74.4623	1,230.47	75.5448
1,274.41	84.9758	1,274.41	84.7624	1,274.41	85.096	1,274.41	84.0126	1,274.41	84.6463	1,274.41	83.1	1,274.41	83.6747	1,274.41	81.9097	1,274.41	82.7471	1,274.41	80.0747	1,274.41	81.3951	1,274.41	78.9309	1,274.41	79.9478	1,274.41	78.6643	1,274.41	78.7423	1,274.41	78.9044	1,274.41	78.5032	1,274.41	78.7948	1,274.41	79.1621	1,274.41	78.217	1,274.41	78.8069	1,274.41	77.2382	1,274.41	78.2816	1,274.41	74.6737	1,274.41	76.7262	1,274.41	70.621	1,274.41	73.51	1,274.41	65.5546	1,274.41	70.577	1,274.41	70.0313	1,274.41	65.3476	1,274.41	73.7788	1,274.41	71.7877	1,274.41	75.9155	1,274.41	74.5262	1,274.41	75.5203
1,319.82	85.3201	1,319.82	84.9507	1,319.82	85.0467	1,319.82	84.3278	1,319.82	84.585	1,319.82	83.4428	1,319.82	83.9781	1,319.82	82.3588	1,319.82	82.8988	1,319.82	80.9846	1,319.82	81.1778	1,319.82	78.9772	1,319.82	79.2136	1,319.82	78.0824	1,319.82	77.6284	1,319.82	77.3729	1,319.82	77.494	1,319.82	77.44	1,319.82	76.9554	1,319.82	76.4379	1,319.82	77.3052	1,319.82	76.5197	1,319.82	77.0323	1,319.82	75.0914	1,319.82	76.0448	1,319.82	70.2258	1,319.82	74.9376	1,319.82	67.6889	1,319.82	68.554	1,319.82	70.3612	1,319.82	66.2056	1,319.82	73.3899	1,319.82	71.2619	1,319.82	74.7336	1,319.82	73.4811	1,319.82	75.6945
1,366.7	84.9921	1,366.7	85.0345	1,366.7	85.1381	1,366.7	84.6531	1,366.7	84.9966	1,366.7	83.7563	1,366.7	84.0538	1,366.7	82.695	1,366.7	83.111	1,366.7	81.6542	1,366.7	81.922	1,366.7	80.2936	1,366.7	80.9171	1,366.7	78.1514	1,366.7	79.6952	1,366.7	76.9439	1,366.7	77.7734	1,366.7	76.3328	1,366.7	76.9415	1,366.7	76.8725	1,366.7	77.1247	1,366.7	76.3709	1,366.7	76.851	1,366.7	73.1077	1,366.7	75.2888	1,366.7	71.0998	1,366.7	72.0272	1,366.7	63.0751	1,366.7	66.9847	1,366.7	68.812	1,366.7	62.1363	1,366.7	71.7045	1,366.7	69.4615	1,366.7	76.2777	1,366.7	73.5666	1,366.7	75.3977
1,413.57	84.8905	1,413.57	84.5	1,413.57	84.6338	1,413.57	84.1772	1,413.57	84.0995	1,413.57	83.7174	1,413.57	83.8722	1,413.57	82.3313	1,413.57	82.7448	1,413.57	81.0467	1,413.57	81.5354	1,413.57	79.9335	1,413.57	79.551	1,413.57	78.4499	1,413.57	77.5359	1,413.57	77.6625	1,413.57	76.7218	1,413.57	77.538	1,413.57	77.0825	1,413.57	77.5626	1,413.57	77.0934	1,413.57	76.4806	1,413.57	76.4432	1,413.57	74.5287	1,413.57	76.7208	1,413.57	70.2576	1,413.57	74.1347	1,413.57	65.0267	1,413.57	70.6478	1,413.57	66.2513	1,413.57	62.5845	1,413.57	74.2424	1,413.57	66.3345	1,413.57	72.8436	1,413.57	73.2392	1,413.57	74.3347
1,463.38	84.2999	1,463.38	83.9788	1,463.38	83.9178	1,463.38	83.3297	1,463.38	83.4392	1,463.38	82.608	1,463.38	82.9228	1,463.38	81.4322	1,463.38	81.9664	1,463.38	79.1001	1,463.38	80.7014	1,463.38	78.0671	1,463.38	78.5015	1,463.38	76.9884	1,463.38	77.041	1,463.38	74.5248	1,463.38	75.0839	1,463.38	76.0853	1,463.38	72.9271	1,463.38	75.0261	1,463.38	74.62	1,463.38	73.8627	1,463.38	75.71	1,463.38	73.3282	1,463.38	73.801	1,463.38	68.1353	1,463.38	71.9486	1,463.38	64.8007	1,463.38	67.1318	1,463.38	67.5509	1,463.38	58.1276	1,463.38	72.3643	1,463.38	67.8635	1,463.38	73.3233	1,463.38	71.9086	1,463.38	73.4165
1,516.11	83.139	1,516.11	82.7807	1,516.11	83.3726	1,516.11	82.7126	1,516.11	82.9013	1,516.11	81.4896	1,516.11	82.3601	1,516.11	80.3072	1,516.11	81.1822	1,516.11	79.7206	1,516.11	79.6758	1,516.11	77.3615	1,516.11	78.8561	1,516.11	75.8697	1,516.11	76.6414	1,516.11	76.6867	1,516.11	75.0484	1,516.11	75.3686	1,516.11	74.7492	1,516.11	75.2486	1,516.11	73.745	1,516.11	75.6173	1,516.11	73.6533	1,516.11	73.8818	1,516.11	74.2837	1,516.11	71.7726	1,516.11	72.0821	1,516.11	66.0567	1,516.11	68.1832	1,516.11	56.0068	1,516.11	64.1784	1,516.11	68.9091	1,516.11	60.2059	1,516.11	70.6775	1,516.11	69.0648	1,516.11	70.6288
1,568.85	82.8353	1,568.85	82.529	1,568.85	82.4703	1,568.85	81.9301	1,568.85	82.7743	1,568.85	80.7405	1,568.85	82.3828	1,568.85	80.8359	1,568.85	80.4663	1,568.85	78.452	1,568.85	80.2611	1,568.85	77.4832	1,568.85	78.5648	1,568.85	75.6893	1,568.85	76.7166	1,568.85	74.2826	1,568.85	75.3588	1,568.85	74.4955	1,568.85	72.5141	1,568.85	74.0458	1,568.85	73.5683	1,568.85	73.6871	1,568.85	73.6482	1,568.85	71.5153	1,568.85	73.5262	1,568.85	69.8339	1,568.85	71.1635	1,568.85	61.2519	1,568.85	70.1497	1,568.85	59.8275	1,568.85	61.9097	1,568.85	61.2334	1,568.85	59.628	1,568.85	69.5341	1,568.85	65.6679	1,568.85	69.4116
1,624.51	82.9171	1,624.51	82.8451	1,624.51	82.8937	1,624.51	81.8367	1,624.51	82.8951	1,624.51	80.8784	1,624.51	81.8711	1,624.51	79.596	1,624.51	80.8695	1,624.51	78.0981	1,624.51	80.2751	1,624.51	76.435	1,624.51	77.9603	1,624.51	75.8071	1,624.51	76.5456	1,624.51	74.1113	1,624.51	74.9174	1,624.51	72.7657	1,624.51	73.4669	1,624.51	73.7457	1,624.51	73.7251	1,624.51	73.7867	1,624.51	73.6581	1,624.51	73.3133	1,624.51	74.4481	1,624.51	72.6705	1,624.51	72.5669	1,624.51	67.9252	1,624.51	72.0594	1,624.51	63.5096	1,624.51	64.5051	1,624.51	63.2013	1,624.51	58.9511	1,624.51	66.7304	1,624.51	65.8567	1,624.51	69.4566
1,681.64	83.3435	1,681.64	83.0527	1,681.64	82.791	1,681.64	81.6936	1,681.64	82.5756	1,681.64	81.0168	1,681.64	82.2388	1,681.64	80.0379	1,681.64	81.1154	1,681.64	79.0144	1,681.64	79.6214	1,681.64	76.9597	1,681.64	78.6727	1,681.64	74.5138	1,681.64	77.0866	1,681.64	73.2934	1,681.64	74.4942	1,681.64	71.2518	1,681.64	74.4916	1,681.64	71.6973	1,681.64	72.7844	1,681.64	72.9968	1,681.64	74.0484	1,681.64	73.7519	1,681.64	72.4665	1,681.64	71.0191	1,681.64	72.4894	1,681.64	65.9799	1,681.64	69.9882	1,681.64	61.1998	1,681.64	65.9364	1,681.64	65.1789	1,681.64	58.8004	1,681.64	69.9522	1,681.64	65.9051	1,681.64	70.1552
1,741.7	83.3598	1,741.7	82.8145	1,741.7	83.4031	1,741.7	82.4283	1,741.7	82.7236	1,741.7	81.8575	1,741.7	82.018	1,741.7	80.61	1,741.7	81.2358	1,741.7	79.499	1,741.7	79.6933	1,741.7	77.7337	1,741.7	77.9145	1,741.7	75.8395	1,741.7	76.1412	1,741.7	73.477	1,741.7	74.4616	1,741.7	72.2295	1,741.7	72.6796	1,741.7	70.8559	1,741.7	72.1687	1,741.7	72.0774	1,741.7	71.8788	1,741.7	72.3137	1,741.7	71.1704	1,741.7	70.3869	1,741.7	72.5532	1,741.7	68.4872	1,741.7	68.5051	1,741.7	60.6908	1,741.7	64.2306	1,741.7	66.1754	1,741.7	57.4948	1,741.7	67.3728	1,741.7	68.1707	1,741.7	67.6672
1,803.22	82.9149	1,803.22	82.475	1,803.22	82.6287	1,803.22	81.632	1,803.22	81.9833	1,803.22	80.9851	1,803.22	81.4011	1,803.22	80.152	1,803.22	79.8666	1,803.22	78.9284	1,803.22	78.4932	1,803.22	77.2399	1,803.22	77.6558	1,803.22	76.6736	1,803.22	75.7009	1,803.22	74.8271	1,803.22	73.3706	1,803.22	73.7517	1,803.22	72.3129	1,803.22	71.9999	1,803.22	71.5714	1,803.22	74.1796	1,803.22	70.6948	1,803.22	74.9555	1,803.22	69.7912	1,803.22	72.9543	1,803.22	71.7948	1,803.22	68.9426	1,803.22	68.3663	1,803.22	65.793	1,803.22	65.8649	1,803.22	62.4886	1,803.22	59.5989	1,803.22	66.1967	1,803.22	67.2318	1,803.22	68.9613
1,866.21	81.7814	1,866.21	81.4552	1,866.21	81.5133	1,866.21	81.2194	1,866.21	81.202	1,866.21	80.1575	1,866.21	80.5619	1,866.21	79.2683	1,866.21	79.6567	1,866.21	77.7155	1,866.21	78.8567	1,866.21	77.4796	1,866.21	77.3843	1,866.21	75.9224	1,866.21	75.8943	1,866.21	73.1751	1,866.21	73.9907	1,866.21	71.9177	1,866.21	72.1297	1,866.21	69.8244	1,866.21	70.8339	1,866.21	70.818	1,866.21	70.8005	1,866.21	71.3028	1,866.21	71.6967	1,866.21	71.9642	1,866.21	70.743	1,866.21	68.8007	1,866.21	70.3984	1,866.21	63.6268	1,866.21	66.3622	1,866.21	54.6874	1,866.21	54.4162	1,866.21	62.2812	1,866.21	61.5044	1,866.21	66.2348
1,932.13	80.6525	1,932.13	80.5978	1,932.13	80.6974	1,932.13	79.9572	1,932.13	80.4322	1,932.13	79.0189	1,932.13	80.5616	1,932.13	77.9038	1,932.13	78.8941	1,932.13	76.2312	1,932.13	78.0055	1,932.13	74.7258	1,932.13	76.6561	1,932.13	74.6079	1,932.13	74.451	1,932.13	71.417	1,932.13	74.1879	1,932.13	69.7318	1,932.13	72.238	1,932.13	65.5349	1,932.13	69.49	1,932.13	68.48	1,932.13	68.1836	1,932.13	71.0353	1,932.13	72.424	1,932.13	69.9392	1,932.13	70.3609	1,932.13	68.2677	1,932.13	69.7066	1,932.13	62.7864	1,932.13	66.5117	1,932.13	61.035	1,932.13	52.0025	1,932.13	65.8096	1,932.13	54.4466	1,932.13	64.8569
1,999.51	81.4609	1,999.51	81.0324	1,999.51	81.5693	1,999.51	80.5796	1,999.51	80.635	1,999.51	79.409	1,999.51	80.4206	1,999.51	77.757	1,999.51	79.8028	1,999.51	76.7055	1,999.51	78.4607	1,999.51	75.1839	1,999.51	76.6392	1,999.51	73.4997	1,999.51	76.2006	1,999.51	73.0119	1,999.51	73.7585	1,999.51	71.1856	1,999.51	71.0462	1,999.51	70.2075	1,999.51	68.8988	1,999.51	68.9928	1,999.51	68.9062	1,999.51	68.6161	1,999.51	69.9721	1,999.51	68.8779	1,999.51	70.6996	1,999.51	64.9622	1,999.51	70.7985	1,999.51	63.1203	1,999.51	66.9498	1,999.51	57.8734	1,999.51	63.0582	1,999.51	64.8089	1,999.51	63.6461	1,999.51	64.1995
2,069.82	82.2519	2,069.82	82.1611	2,069.82	82.2043	2,069.82	80.83	2,069.82	81.707	2,069.82	79.932	2,069.82	81.2791	2,069.82	78.6218	2,069.82	80.1955	2,069.82	77.6447	2,069.82	78.649	2,069.82	75.9243	2,069.82	77.2525	2,069.82	73.919	2,069.82	75.775	2,069.82	71.3094	2,069.82	73.6269	2,069.82	69.8708	2,069.82	70.4666	2,069.82	69.2267	2,069.82	70.678	2,069.82	69.7771	2,069.82	68.0011	2,069.82	69.1708	2,069.82	70.5458	2,069.82	68.9849	2,069.82	70.7401	2,069.82	68.2076	2,069.82	70.6948	2,069.82	62.5406	2,069.82	67.7674	2,069.82	62.9309	2,069.82	64.6991	2,069.82	64.8373	2,069.82	61.347	2,069.82	64.852
2,143.07	82.2054	2,143.07	82.213	2,143.07	82.184	2,143.07	81.0913	2,143.07	81.2747	2,143.07	79.8874	2,143.07	80.7306	2,143.07	78.5943	2,143.07	78.9322	2,143.07	77.7863	2,143.07	77.9577	2,143.07	75.8565	2,143.07	76.5487	2,143.07	74.1878	2,143.07	74.8571	2,143.07	74.2075	2,143.07	74.1173	2,143.07	71.8923	2,143.07	72.1323	2,143.07	68.2185	2,143.07	69.7823	2,143.07	68.911	2,143.07	66.9142	2,143.07	69.3749	2,143.07	69.4455	2,143.07	69.3341	2,143.07	70.3435	2,143.07	67.9391	2,143.07	70.5488	2,143.07	66.4965	2,143.07	65.8055	2,143.07	61.4815	2,143.07	61.2828	2,143.07	67.5634	2,143.07	62.4189	2,143.07	66.824
2,219.24	81.1037	2,219.24	80.9555	2,219.24	80.9743	2,219.24	79.8886	2,219.24	80.908	2,219.24	79.0263	2,219.24	79.6507	2,219.24	77.8421	2,219.24	77.9935	2,219.24	75.574	2,219.24	77.5465	2,219.24	74.5934	2,219.24	75.5398	2,219.24	74.7617	2,219.24	74.4773	2,219.24	73.251	2,219.24	73.2713	2,219.24	70.2421	2,219.24	73.2962	2,219.24	67.4476	2,219.24	70.6457	2,219.24	70.5772	2,219.24	66.9087	2,219.24	69.9053	2,219.24	66.9807	2,219.24	71.0455	2,219.24	67.6097	2,219.24	69.8637	2,219.24	67.6127	2,219.24	63.0264	2,219.24	68.8068	2,219.24	67.7974	2,219.24	61.601	2,219.24	66.0149	2,219.24	64.0733	2,219.24	68.5485
2,296.88	81.3897	2,296.88	80.928	2,296.88	81.5993	2,296.88	80.4874	2,296.88	80.724	2,296.88	79.6399	2,296.88	80.5484	2,296.88	78.1422	2,296.88	80.0649	2,296.88	77.2163	2,296.88	76.7699	2,296.88	74.1	2,296.88	75.8023	2,296.88	71.3158	2,296.88	72.1265	2,296.88	72.6808	2,296.88	71.9648	2,296.88	71.3199	2,296.88	72.8147	2,296.88	71.6208	2,296.88	70.234	2,296.88	66.4424	2,296.88	68.503	2,296.88	69.8602	2,296.88	69.3055	2,296.88	66.5685	2,296.88	63.977	2,296.88	63.769	2,296.88	68.5008	2,296.88	65.4558	2,296.88	62.4217	2,296.88	62.5426	2,296.88	64.3298	2,296.88	65.2872	2,296.88	64.0582	2,296.88	66.0114
2,378.91	82.7413	2,378.91	82.0398	2,378.91	82.2807	2,378.91	81.0806	2,378.91	81.576	2,378.91	79.914	2,378.91	80.6725	2,378.91	78.0733	2,378.91	79.649	2,378.91	77.5803	2,378.91	77.5593	2,378.91	75.289	2,378.91	76.7937	2,378.91	72.0501	2,378.91	73.6146	2,378.91	71.1638	2,378.91	73.4361	2,378.91	71.3088	2,378.91	69.4159	2,378.91	70.2399	2,378.91	71.0863	2,378.91	66.0978	2,378.91	71.925	2,378.91	65.1837	2,378.91	71.6835	2,378.91	67.9726	2,378.91	68.3475	2,378.91	66.8458	2,378.91	69.3239	2,378.91	54.9125	2,378.91	66.6416	2,378.91	61.6193	2,378.91	57.9084	2,378.91	72.1802	2,378.91	63.0144	2,378.91	66.3651
2,462.4	84.3214	2,462.4	83.8439	2,462.4	84.0478	2,462.4	82.9564	2,462.4	83.59	2,462.4	81.8269	2,462.4	82.5952	2,462.4	80.3034	2,462.4	81.2206	2,462.4	78.5426	2,462.4	79.6516	2,462.4	76.9173	2,462.4	78.2963	2,462.4	74.8476	2,462.4	76.6521	2,462.4	72.3672	2,462.4	75.094	2,462.4	71.613	2,462.4	73.4621	2,462.4	70.5283	2,462.4	71.8445	2,462.4	68.6705	2,462.4	71.3157	2,462.4	68.6706	2,462.4	71.1307	2,462.4	70.2455	2,462.4	70.1664	2,462.4	68.5565	2,462.4	70.4347	2,462.4	65.1183	2,462.4	68.7105	2,462.4	63.5113	2,462.4	64.3495	2,462.4	67.4943	2,462.4	67.3432	2,462.4	68.1386
2,548.83	83.9287	2,548.83	83.5676	2,548.83	84.1198	2,548.83	83.1068	2,548.83	83.12	2,548.83	81.6068	2,548.83	82.3798	2,548.83	80.3854	2,548.83	80.8182	2,548.83	79.2288	2,548.83	79.5785	2,548.83	77.8444	2,548.83	77.9392	2,548.83	74.6837	2,548.83	76.8043	2,548.83	74.8074	2,548.83	74.7046	2,548.83	71.6933	2,548.83	73.3178	2,548.83	70.8419	2,548.83	70.8773	2,548.83	69.2638	2,548.83	69.5959	2,548.83	68.8875	2,548.83	69.1084	2,548.83	70.072	2,548.83	69.9273	2,548.83	69.7457	2,548.83	70.8188	2,548.83	67.4955	2,548.83	68.7769	2,548.83	62.1761	2,548.83	64.3954	2,548.83	69.4754	2,548.83	64.9209	2,548.83	68.2784
2,639.65	83.065	2,639.65	83.139	2,639.65	83.212	2,639.65	81.8074	2,639.65	82.8736	2,639.65	80.7401	2,639.65	81.3338	2,639.65	78.9922	2,639.65	80.1811	2,639.65	78.0421	2,639.65	78.5961	2,639.65	77.1619	2,639.65	76.9534	2,639.65	75.8649	2,639.65	75.9629	2,639.65	72.9819	2,639.65	74.0882	2,639.65	70.7817	2,639.65	73.2207	2,639.65	69.2736	2,639.65	70.7653	2,639.65	67.1937	2,639.65	69.2918	2,639.65	68.2173	2,639.65	67.1179	2,639.65	69.3384	2,639.65	68.5611	2,639.65	69.3268	2,639.65	69.6939	2,639.65	66.1508	2,639.65	68.8591	2,639.65	63.9257	2,639.65	65.374	2,639.65	67.1822	2,639.65	63.9298	2,639.65	66.8624
2,731.93	82.8773	2,731.93	82.4968	2,731.93	82.8443	2,731.93	81.2937	2,731.93	82.4982	2,731.93	79.5124	2,731.93	81.0764	2,731.93	77.8702	2,731.93	79.687	2,731.93	76.1462	2,731.93	78.2673	2,731.93	75.3884	2,731.93	77.0302	2,731.93	75.3879	2,731.93	75.8829	2,731.93	71.0576	2,731.93	73.8683	2,731.93	70.569	2,731.93	72.5642	2,731.93	69.0355	2,731.93	71.0826	2,731.93	69.3434	2,731.93	69.9095	2,731.93	66.4975	2,731.93	64.6351	2,731.93	68.1048	2,731.93	68.1196	2,731.93	68.817	2,731.93	69.5977	2,731.93	63.4153	2,731.93	69.3224	2,731.93	61.0037	2,731.93	64.4251	2,731.93	66.4644	2,731.93	62.4077	2,731.93	67.2823
2,828.61	83.3018	2,828.61	83.0004	2,828.61	82.5288	2,828.61	81.7424	2,828.61	82.4679	2,828.61	80.751	2,828.61	81.2445	2,828.61	79.3283	2,828.61	79.8776	2,828.61	76.266	2,828.61	78.5367	2,828.61	75.1751	2,828.61	77.7259	2,828.61	75.2378	2,828.61	75.6656	2,828.61	71.2263	2,828.61	74.4798	2,828.61	71.655	2,828.61	73.0711	2,828.61	70.5192	2,828.61	72.4675	2,828.61	69.9425	2,828.61	70.6717	2,828.61	67.9363	2,828.61	69.1868	2,828.61	69.5396	2,828.61	67.3611	2,828.61	69.7461	2,828.61	69.38	2,828.61	67.6077	2,828.61	69.3813	2,828.61	63.8658	2,828.61	64.9927	2,828.61	67.5456	2,828.61	63.3958	2,828.61	70.1646
2,928.22	83.3477	2,928.22	83.0246	2,928.22	83.4854	2,928.22	82.3224	2,928.22	82.2661	2,928.22	81.5858	2,928.22	82.0648	2,928.22	80.2962	2,928.22	81.0136	2,928.22	78.9276	2,928.22	79.9572	2,928.22	77.5353	2,928.22	78.7268	2,928.22	74.6391	2,928.22	77.0472	2,928.22	74.4029	2,928.22	76.3037	2,928.22	72.5533	2,928.22	74.5446	2,928.22	72.0279	2,928.22	73.4768	2,928.22	72.0851	2,928.22	70.5117	2,928.22	68.5642	2,928.22	70.8346	2,928.22	68.7416	2,928.22	67.1491	2,928.22	69.9626	2,928.22	70.9572	2,928.22	69.3679	2,928.22	71.1986	2,928.22	64.2861	2,928.22	68.4281	2,928.22	65.7895	2,928.22	65.538	2,928.22	67.8976
3,030.76	83.1926	3,030.76	82.9685	3,030.76	83.005	3,030.76	82.3948	3,030.76	82.5489	3,030.76	82.0141	3,030.76	82.3018	3,030.76	81.5417	3,030.76	81.5804	3,030.76	80.6902	3,030.76	80.3242	3,030.76	79.0541	3,030.76	79.1336	3,030.76	76.6514	3,030.76	77.7256	3,030.76	76.1683	3,030.76	76.4672	3,030.76	73.7868	3,030.76	74.741	3,030.76	73.0902	3,030.76	72.7099	3,030.76	71.3344	3,030.76	72.7968	3,030.76	70.1019	3,030.76	71.7528	3,030.76	68.1165	3,030.76	69.7454	3,030.76	71.1775	3,030.76	69.7878	3,030.76	69.9058	3,030.76	71.3643	3,030.76	65.541	3,030.76	68.4588	3,030.76	70.4586	3,030.76	66.7147	3,030.76	69.9522
3,137.7	82.163	3,137.7	82.0966	3,137.7	82.694	3,137.7	82.2062	3,137.7	81.896	3,137.7	81.8004	3,137.7	81.9813	3,137.7	81.6888	3,137.7	81.1379	3,137.7	80.5867	3,137.7	80.5841	3,137.7	78.754	3,137.7	79.4794	3,137.7	76.8821	3,137.7	77.9678	3,137.7	77.2337	3,137.7	76.2256	3,137.7	74.715	3,137.7	74.9338	3,137.7	73.1476	3,137.7	72.3568	3,137.7	73.0249	3,137.7	71.3292	3,137.7	70.835	3,137.7	71.5793	3,137.7	69.4655	3,137.7	68.3308	3,137.7	71.0776	3,137.7	68.573	3,137.7	71.2738	3,137.7	71.3941	3,137.7	67.4145	3,137.7	69.3576	3,137.7	69.7694	3,137.7	67.1374	3,137.7	68.6343
3,249.02	81.3151	3,249.02	80.9647	3,249.02	81.9129	3,249.02	81.4676	3,249.02	81.1306	3,249.02	80.849	3,249.02	81.1272	3,249.02	80.8291	3,249.02	81.0145	3,249.02	80.3912	3,249.02	80.5273	3,249.02	79.4478	3,249.02	79.6006	3,249.02	77.913	3,249.02	77.947	3,249.02	77.2869	3,249.02	76.3295	3,249.02	74.4657	3,249.02	74.6089	3,249.02	71.9945	3,249.02	73.2638	3,249.02	72.7178	3,249.02	71.9039	3,249.02	72.7114	3,249.02	72.1508	3,249.02	70.7919	3,249.02	68.5492	3,249.02	69.5514	3,249.02	70.3282	3,249.02	69.0299	3,249.02	70.4	3,249.02	67.0154	3,249.02	68.6582	3,249.02	69.0789	3,249.02	65.2818	3,249.02	66.4013
3,363.28	81.8494	3,363.28	81.5703	3,363.28	82.1846	3,363.28	81.438	3,363.28	81.4176	3,363.28	81.6656	3,363.28	81.342	3,363.28	80.3654	3,363.28	81.3847	3,363.28	80.353	3,363.28	80.9519	3,363.28	78.9143	3,363.28	79.6926	3,363.28	78.1988	3,363.28	78.1668	3,363.28	76.8329	3,363.28	77.2468	3,363.28	74.1697	3,363.28	75.5767	3,363.28	70.586	3,363.28	73.6329	3,363.28	70.6495	3,363.28	72.8139	3,363.28	72.1274	3,363.28	72.1187	3,363.28	68.4115	3,363.28	71.2773	3,363.28	68.7056	3,363.28	68.7032	3,363.28	69.3855	3,363.28	69.7337	3,363.28	66.0782	3,363.28	68.2814	3,363.28	66.6264	3,363.28	63.0527	3,363.28	66.9071
3,481.93	81.5297	3,481.93	81.5487	3,481.93	81.332	3,481.93	81.5722	3,481.93	81.9894	3,481.93	81.7696	3,481.93	81.4613	3,481.93	81.8815	3,481.93	82.3036	3,481.93	81.6271	3,481.93	81.9699	3,481.93	80.2426	3,481.93	79.9607	3,481.93	78.6583	3,481.93	78.1817	3,481.93	76.5522	3,481.93	76.7109	3,481.93	75.9367	3,481.93	75.3008	3,481.93	73.0253	3,481.93	73.6894	3,481.93	69.519	3,481.93	71.4107	3,481.93	72.0765	3,481.93	71.2549	3,481.93	70.7344	3,481.93	72.0453	3,481.93	70.6609	3,481.93	66.4081	3,481.93	69.1147	3,481.93	69.8682	3,481.93	66.2645	3,481.93	68.4616	3,481.93	66.3312	3,481.93	63.0034	3,481.93	67.6505
3,604.98	81.5549	3,604.98	82.4588	3,604.98	80.6594	3,604.98	83.1494	3,604.98	82.6338	3,604.98	83.014	3,604.98	82.8978	3,604.98	83.2635	3,604.98	82.4103	3,604.98	81.8133	3,604.98	81.9745	3,604.98	80.1663	3,604.98	80.9999	3,604.98	79.2097	3,604.98	80.0844	3,604.98	76.6897	3,604.98	77.933	3,604.98	75.3063	3,604.98	75.8157	3,604.98	72.488	3,604.98	74.0471	3,604.98	71.6111	3,604.98	71.8992	3,604.98	71.6546	3,604.98	73.2807	3,604.98	69.711	3,604.98	72.4223	3,604.98	71.6297	3,604.98	70.7071	3,604.98	70.7998	3,604.98	71.4326	3,604.98	64.3346	3,604.98	69.7079	3,604.98	68.5426	3,604.98	67.0703	3,604.98	69.8675
3,732.42	82.7178	3,732.42	83.3724	3,732.42	82.4564	3,732.42	84.0386	3,732.42	83.8428	3,732.42	84.1051	3,732.42	84.0312	3,732.42	84.1203	3,732.42	83.2977	3,732.42	82.2359	3,732.42	82.5127	3,732.42	79.9659	3,732.42	81.4184	3,732.42	78.2837	3,732.42	80.2037	3,732.42	77.1465	3,732.42	78.9503	3,732.42	76.1826	3,732.42	76.6395	3,732.42	73.3471	3,732.42	74.5212	3,732.42	73.5728	3,732.42	72.3143	3,732.42	72.266	3,732.42	72.1149	3,732.42	71.5493	3,732.42	73.3115	3,732.42	71.0181	3,732.42	72.1927	3,732.42	71.2659	3,732.42	72.5427	3,732.42	67.0364	3,732.42	71.1071	3,732.42	69.0916	3,732.42	69.1868	3,732.42	70.118
3,864.26	81.8803	3,864.26	82.9868	3,864.26	82.3494	3,864.26	83.6128	3,864.26	82.5502	3,864.26	83.8947	3,864.26	83.4355	3,864.26	83.7998	3,864.26	82.5784	3,864.26	81.6818	3,864.26	81.4686	3,864.26	79.5033	3,864.26	81.4171	3,864.26	77.0196	3,864.26	79.7019	3,864.26	76.4928	3,864.26	75.9459	3,864.26	74.8573	3,864.26	73.8658	3,864.26	74.2683	3,864.26	73.357	3,864.26	71.0742	3,864.26	71.5488	3,864.26	72.1202	3,864.26	70.1034	3,864.26	72.2108	3,864.26	72.4214	3,864.26	69.9662	3,864.26	71.1075	3,864.26	71.568	3,864.26	69.1794	3,864.26	66.8082	3,864.26	70.2915	3,864.26	68.834	3,864.26	67.5988	3,864.26	68.6205
4,000.49	82.963	4,000.49	83.3281	4,000.49	83.3808	4,000.49	83.3147	4,000.49	82.7144	4,000.49	83.7426	4,000.49	83.033	4,000.49	82.2706	4,000.49	82.9114	4,000.49	81.4515	4,000.49	82.2821	4,000.49	79.8046	4,000.49	81.7429	4,000.49	77.0219	4,000.49	79.9177	4,000.49	75.7328	4,000.49	77.1476	4,000.49	73.2708	4,000.49	74.8515	4,000.49	72.3018	4,000.49	72.4153	4,000.49	69.8636	4,000.49	69.6568	4,000.49	70.466	4,000.49	70.0131	4,000.49	72.901	4,000.49	72.4923	4,000.49	70.8776	4,000.49	70.4283	4,000.49	71.0989	4,000.49	69.2681	4,000.49	67.8872	4,000.49	70.3789	4,000.49	67.7248	4,000.49	65.524	4,000.49	67.8115
4,141.11	83.0873	4,141.11	82.3012	4,141.11	83.5668	4,141.11	84.4804	4,141.11	82.8354	4,141.11	84.027	4,141.11	83.478	4,141.11	82.2839	4,141.11	84.0634	4,141.11	81.9547	4,141.11	82.6239	4,141.11	80.9496	4,141.11	81.6703	4,141.11	78.742	4,141.11	79.4071	4,141.11	77.3205	4,141.11	76.2991	4,141.11	74.088	4,141.11	74.7714	4,141.11	73.3866	4,141.11	73.203	4,141.11	72.0808	4,141.11	71.1811	4,141.11	70.4367	4,141.11	69.2444	4,141.11	74.2001	4,141.11	69.8774	4,141.11	70.3634	4,141.11	68.4594	4,141.11	70.8224	4,141.11	70.1076	4,141.11	69.5978	4,141.11	70.0306	4,141.11	69.8274	4,141.11	63.4944	4,141.11	70.1788
4,287.6	80.8794	4,287.6	82.4806	4,287.6	81.2177	4,287.6	82.5611	4,287.6	82.8649	4,287.6	82.9798	4,287.6	83.0029	4,287.6	82.7935	4,287.6	84.3431	4,287.6	81.1417	4,287.6	84.0405	4,287.6	80.3671	4,287.6	80.8709	4,287.6	78.3576	4,287.6	79.327	4,287.6	74.9855	4,287.6	76.5908	4,287.6	73.5847	4,287.6	74.9606	4,287.6	72.4626	4,287.6	73.7667	4,287.6	68.8929	4,287.6	72.8238	4,287.6	69.6655	4,287.6	69.0654	4,287.6	72.2447	4,287.6	70.6819	4,287.6	69.3485	4,287.6	72.393	4,287.6	71.2373	4,287.6	70.1087	4,287.6	67.8232	4,287.6	71.0014	4,287.6	66.789	4,287.6	65.5256	4,287.6	69.8242
4,438.48	80.0107	4,438.48	81.8628	4,438.48	80.3368	4,438.48	81.7724	4,438.48	82.5577	4,438.48	83.7823	4,438.48	83.8647	4,438.48	84.4555	4,438.48	84.0571	4,438.48	83.2216	4,438.48	83.2393	4,438.48	80.3563	4,438.48	80.9128	4,438.48	78.1808	4,438.48	78.5271	4,438.48	74.9671	4,438.48	76.9443	4,438.48	73.0658	4,438.48	74.3743	4,438.48	73.2342	4,438.48	72.6259	4,438.48	65.2175	4,438.48	71.3018	4,438.48	68.4436	4,438.48	68.2677	4,438.48	69.4426	4,438.48	71.5514	4,438.48	69.551	4,438.48	72.0342	4,438.48	72.6339	4,438.48	71.3967	4,438.48	68.6437	4,438.48	71.0018	4,438.48	64.7951	4,438.48	65.9019	4,438.48	67.9971
4,595.21	80.4189	4,595.21	80.1317	4,595.21	80.8647	4,595.21	83.8217	4,595.21	81.5364	4,595.21	83.6355	4,595.21	84.3217	4,595.21	83.5776	4,595.21	82.9937	4,595.21	82.7828	4,595.21	81.2174	4,595.21	79.8691	4,595.21	80.0316	4,595.21	78.5719	4,595.21	79.6192	4,595.21	75.8204	4,595.21	77.3896	4,595.21	72.8495	4,595.21	74.8793	4,595.21	72.7063	4,595.21	72.0973	4,595.21	69.7231	4,595.21	71.6225	4,595.21	69.0515	4,595.21	67.2753	4,595.21	71.4914	4,595.21	69.5324	4,595.21	70.8406	4,595.21	70.4049	4,595.21	73.2877	4,595.21	69.8316	4,595.21	68.9769	4,595.21	71.035	4,595.21	69.4648	4,595.21	65.76	4,595.21	67.6436
4,756.35	82.1925	4,756.35	82.7832	4,756.35	81.3135	4,756.35	84.6691	4,756.35	83.3447	4,756.35	84.6245	4,756.35	83.6677	4,756.35	83.5221	4,756.35	83.9806	4,756.35	81.1504	4,756.35	82.7723	4,756.35	79.9993	4,756.35	80.8293	4,756.35	78.8116	4,756.35	79.0562	4,756.35	74.3902	4,756.35	79.3836	4,756.35	72.8043	4,756.35	76.369	4,756.35	65.936	4,756.35	72.6882	4,756.35	72.0047	4,756.35	71.9297	4,756.35	69.2416	4,756.35	68.6191	4,756.35	69.307	4,756.35	69.5328	4,756.35	72.1489	4,756.35	71.217	4,756.35	68.7978	4,756.35	70.3468	4,756.35	70.4963	4,756.35	72.7884	4,756.35	66.5529	4,756.35	66.2999	4,756.35	67.3911
4,924.8	81.3262	4,924.8	83.5345	4,924.8	80.1199	4,924.8	82.6605	4,924.8	83.5356	4,924.8	84.4422	4,924.8	82.9725	4,924.8	83.6991	4,924.8	83.9945	4,924.8	81.9493	4,924.8	83.919	4,924.8	81.0297	4,924.8	81.5816	4,924.8	79.1715	4,924.8	79.0563	4,924.8	75.6376	4,924.8	78.1805	4,924.8	76.3167	4,924.8	76.6692	4,924.8	73.9843	4,924.8	72.8182	4,924.8	71.9836	4,924.8	71.8045	4,924.8	69.2475	4,924.8	69.5837	4,924.8	69.1695	4,924.8	64.7802	4,924.8	72.0009	4,924.8	71.6763	4,924.8	70.6242	4,924.8	69.7803	4,924.8	71.6031	4,924.8	72.8738	4,924.8	66.6232	4,924.8	66.6874	4,924.8	68.388
5,097.66	82.4822	5,097.66	82.7217	5,097.66	83.5805	5,097.66	82.5067	5,097.66	82.3883	5,097.66	82.4028	5,097.66	84.0289	5,097.66	80.5471	5,097.66	83.3588	5,097.66	80.6952	5,097.66	82.7616	5,097.66	78.788	5,097.66	82.0118	5,097.66	77.5614	5,097.66	80.2442	5,097.66	74.9706	5,097.66	75.3144	5,097.66	74.4539	5,097.66	76.1173	5,097.66	75.8612	5,097.66	75.2898	5,097.66	72.9925	5,097.66	69.9196	5,097.66	65.8417	5,097.66	70.2015	5,097.66	67.119	5,097.66	68.5737	5,097.66	68.6554	5,097.66	71.0215	5,097.66	71.5199	5,097.66	69.8373	5,097.66	67.8764	5,097.66	69.3457	5,097.66	65.9763	5,097.66	67.798	5,097.66	68.1954
5,277.83	82.7388	5,277.83	83.3451	5,277.83	84.0418	5,277.83	84.2855	5,277.83	82.7506	5,277.83	83.4215	5,277.83	84.0788	5,277.83	83.4057	5,277.83	82.3696	5,277.83	82.1121	5,277.83	79.8158	5,277.83	80.0189	5,277.83	80.3902	5,277.83	76.304	5,277.83	79.544	5,277.83	78.2311	5,277.83	77.0336	5,277.83	73.3244	5,277.83	74.2081	5,277.83	73.7202	5,277.83	74.1963	5,277.83	69.574	5,277.83	71.2686	5,277.83	68.9794	5,277.83	69.0398	5,277.83	71.4742	5,277.83	63.9966	5,277.83	70.0382	5,277.83	69.4329	5,277.83	71.2164	5,277.83	67.2468	5,277.83	69.1973	5,277.83	70.2049	5,277.83	66.6619	5,277.83	67.6246	5,277.83	67.1182
5,463.87	83.7033	5,463.87	82.6475	5,463.87	82.6223	5,463.87	82.7454	5,463.87	83.4008	5,463.87	82.6819	5,463.87	81.1924	5,463.87	81.9929	5,463.87	82.2929	5,463.87	80.7841	5,463.87	81.8227	5,463.87	80.0916	5,463.87	79.8719	5,463.87	77.6077	5,463.87	77.327	5,463.87	78.0849	5,463.87	77.4384	5,463.87	74.8116	5,463.87	75.6049	5,463.87	68.9053	5,463.87	71.9281	5,463.87	68.0827	5,463.87	72.9904	5,463.87	70.7241	5,463.87	69.2547	5,463.87	71.2757	5,463.87	66.0657	5,463.87	70.35	5,463.87	66.0563	5,463.87	68.2073	5,463.87	66.7976	5,463.87	67.6253	5,463.87	70.8283	5,463.87	62.1742	5,463.87	65.7949	5,463.87	65.4037
5,657.23	83.866	5,657.23	81.9739	5,657.23	83.2158	5,657.23	81.912	5,657.23	82.6525	5,657.23	81.0282	5,657.23	80.027	5,657.23	80.4085	5,657.23	80.3551	5,657.23	80.5557	5,657.23	80.7194	5,657.23	80.0588	5,657.23	80.292	5,657.23	80.1181	5,657.23	80.6726	5,657.23	76.0278	5,657.23	76.5357	5,657.23	75.836	5,657.23	74.847	5,657.23	70.8217	5,657.23	72.5653	5,657.23	67.4276	5,657.23	72.159	5,657.23	66.5613	5,657.23	69.9982	5,657.23	66.0792	5,657.23	65.4378	5,657.23	70.0993	5,657.23	64.9334	5,657.23	68.9433	5,657.23	69.3499	5,657.23	70.2395	5,657.23	69.9713	5,657.23	64.2306	5,657.23	65.2094	5,657.23	65.3509
5,856.45	82.293	5,856.45	80.9855	5,856.45	83.465	5,856.45	79.4038	5,856.45	79.8929	5,856.45	79.5852	5,856.45	80.953	5,856.45	80.4752	5,856.45	79.8971	5,856.45	80.8643	5,856.45	79.7162	5,856.45	77.3259	5,856.45	80.1645	5,856.45	78.1354	5,856.45	79.362	5,856.45	73.7463	5,856.45	74.6775	5,856.45	72.596	5,856.45	74.3672	5,856.45	72.3621	5,856.45	71.7519	5,856.45	68.6372	5,856.45	70.0054	5,856.45	66.9283	5,856.45	69.4748	5,856.45	62.7594	5,856.45	68.3836	5,856.45	68.5627	5,856.45	64.2442	5,856.45	68.884	5,856.45	66.5983	5,856.45	68.9258	5,856.45	65.9447	5,856.45	55.8684	5,856.45	66.1596	5,856.45	63.0437
6,062.99	81.8955	6,062.99	81.9469	6,062.99	81.7783	6,062.99	82.2286	6,062.99	80.8876	6,062.99	82.3105	6,062.99	81.2057	6,062.99	82.8571	6,062.99	82.7579	6,062.99	80.9412	6,062.99	81.8254	6,062.99	79.3185	6,062.99	79.6753	6,062.99	74.8166	6,062.99	75.2061	6,062.99	71.3142	6,062.99	76.0103	6,062.99	68.6913	6,062.99	71.7225	6,062.99	69.441	6,062.99	68.4448	6,062.99	68.2173	6,062.99	66.6128	6,062.99	63.7958	6,062.99	67.573	6,062.99	59.9639	6,062.99	68.557	6,062.99	60.0018	6,062.99	64.8403	6,062.99	61.3794	6,062.99	62.8255	6,062.99	67.6783	6,062.99	68.8541	6,062.99	54.887	6,062.99	65.3145	6,062.99	55.4532
6,276.86	81.1799	6,276.86	81.7912	6,276.86	80.3942	6,276.86	81.9162	6,276.86	82.2023	6,276.86	81.7807	6,276.86	81.4719	6,276.86	81.7525	6,276.86	82.8471	6,276.86	79.3786	6,276.86	82.2546	6,276.86	78.4828	6,276.86	79.7099	6,276.86	73.7147	6,276.86	76.554	6,276.86	69.9289	6,276.86	75.4208	6,276.86	67.8409	6,276.86	71.1788	6,276.86	63.4509	6,276.86	67.8098	6,276.86	60.211	6,276.86	65.4879	6,276.86	63.3335	6,276.86	57.8078	6,276.86	61.3027	6,276.86	64.9818	6,276.86	66.477	6,276.86	63.0914	6,276.86	66.1848	6,276.86	67.074	6,276.86	66.6279	6,276.86	63.7107	6,276.86	59.1691	6,276.86	65.9625	6,276.86	58.7358
6,498.05	82.2777	6,498.05	81.8658	6,498.05	83.0581	6,498.05	81.4328	6,498.05	81.8266	6,498.05	83.036	6,498.05	83.3147	6,498.05	81.9709	6,498.05	81.9323	6,498.05	81.6374	6,498.05	81.8318	6,498.05	78.791	6,498.05	80.5794	6,498.05	76.5715	6,498.05	79.0867	6,498.05	73.5405	6,498.05	75.1897	6,498.05	70.6782	6,498.05	72.7573	6,498.05	66.8088	6,498.05	69.8571	6,498.05	66.7355	6,498.05	65.0453	6,498.05	61.219	6,498.05	67.6234	6,498.05	58.7655	6,498.05	63.4711	6,498.05	67.5775	6,498.05	65.0018	6,498.05	62.166	6,498.05	66.3608	6,498.05	64.488	6,498.05	65.2385	6,498.05	58.7923	6,498.05	65.8198	6,498.05	58.4824
6,726.56	83.5594	6,726.56	81.8015	6,726.56	82.9518	6,726.56	81.7121	6,726.56	81.4679	6,726.56	82.2894	6,726.56	82.4244	6,726.56	82.5621	6,726.56	82.1868	6,726.56	81.6482	6,726.56	81.4675	6,726.56	77.8522	6,726.56	79.6655	6,726.56	77.2131	6,726.56	75.8398	6,726.56	74.0079	6,726.56	75.2778	6,726.56	70.6181	6,726.56	71.6167	6,726.56	70.0572	6,726.56	70.2585	6,726.56	69.8818	6,726.56	66.4677	6,726.56	65.2375	6,726.56	65.1629	6,726.56	68.4244	6,726.56	60.6588	6,726.56	62.3983	6,726.56	62.5283	6,726.56	62.7742	6,726.56	66.5568	6,726.56	67.3388	6,726.56	65.9474	6,726.56	55.5669	6,726.56	66.1573	6,726.56	59.4807
6,963.87	83.9417	6,963.87	81.7468	6,963.87	82.6716	6,963.87	81.5109	6,963.87	82.065	6,963.87	81.8206	6,963.87	81.1448	6,963.87	81.9777	6,963.87	82.1896	6,963.87	79.3512	6,963.87	82.5867	6,963.87	79.3295	6,963.87	80.1341	6,963.87	76.3917	6,963.87	77.6216	6,963.87	73.7188	6,963.87	74.1534	6,963.87	71.3509	6,963.87	71.7205	6,963.87	68.8729	6,963.87	69.8671	6,963.87	69.3535	6,963.87	67.3674	6,963.87	62.8329	6,963.87	65.2877	6,963.87	68.6734	6,963.87	61.1364	6,963.87	65.8546	6,963.87	63.807	6,963.87	65.2994	6,963.87	67.3889	6,963.87	66.0826	6,963.87	65.1449	6,963.87	59.7134	6,963.87	68.1754	6,963.87	58.9699
7,209.96	83.8108	7,209.96	82.8403	7,209.96	83.3832	7,209.96	81.5771	7,209.96	82.5971	7,209.96	82.0945	7,209.96	81.1002	7,209.96	81.8019	7,209.96	81.9957	7,209.96	80.5583	7,209.96	81.8629	7,209.96	79.1407	7,209.96	80.4204	7,209.96	73.6857	7,209.96	78.8932	7,209.96	75.3633	7,209.96	74.0538	7,209.96	72.2005	7,209.96	72.3824	7,209.96	69.1099	7,209.96	71.0673	7,209.96	67.212	7,209.96	67.6343	7,209.96	63.9055	7,209.96	64.9919	7,209.96	66.9006	7,209.96	64.2479	7,209.96	64.9456	7,209.96	64.7388	7,209.96	62.6794	7,209.96	65.1166	7,209.96	67.017	7,209.96	63.5703	7,209.96	55.5776	7,209.96	66.8501	7,209.96	58.5001
7,464.84	83.2214	7,464.84	82.4171	7,464.84	83.3428	7,464.84	82.2052	7,464.84	82.2903	7,464.84	81.1965	7,464.84	81.4104	7,464.84	81.578	7,464.84	80.9764	7,464.84	80.8541	7,464.84	79.6352	7,464.84	78.1886	7,464.84	78.8755	7,464.84	75.4512	7,464.84	76.9907	7,464.84	74.7355	7,464.84	73.8731	7,464.84	72.3825	7,464.84	71.4572	7,464.84	69.3868	7,464.84	69.948	7,464.84	64.5877	7,464.84	65.5564	7,464.84	61.5815	7,464.84	65.4065	7,464.84	63.6037	7,464.84	58.8528	7,464.84	64.0333	7,464.84	62.0188	7,464.84	65.11	7,464.84	64.9247	7,464.84	67.6415	7,464.84	63.1638	7,464.84	60.2912	7,464.84	65.4259	7,464.84	50.7609
7,727.05	84.3867	7,727.05	83.5064	7,727.05	83.6992	7,727.05	82.505	7,727.05	82.5731	7,727.05	81.4749	7,727.05	81.294	7,727.05	82.0974	7,727.05	81.8494	7,727.05	79.633	7,727.05	80.8754	7,727.05	77.9491	7,727.05	79.592	7,727.05	77.2535	7,727.05	76.254	7,727.05	72.9765	7,727.05	74.8453	7,727.05	70.4579	7,727.05	70.5376	7,727.05	64.8882	7,727.05	70.1079	7,727.05	62.2063	7,727.05	68.302	7,727.05	64.2097	7,727.05	63.512	7,727.05	61.5839	7,727.05	62.1871	7,727.05	62.7665	7,727.05	59.1362	7,727.05	64.3345	7,727.05	61.7018	7,727.05	65.9543	7,727.05	63.3931	7,727.05	56.9528	7,727.05	65.4764	7,727.05	56.9179
7,999.51	83.7749	7,999.51	82.9978	7,999.51	83.7883	7,999.51	81.0844	7,999.51	82.0249	7,999.51	81.2464	7,999.51	80.5975	7,999.51	80.0894	7,999.51	80.074	7,999.51	79.8229	7,999.51	79.6424	7,999.51	78.4674	7,999.51	78.133	7,999.51	76.3259	7,999.51	77.5277	7,999.51	73.4379	7,999.51	74.7967	7,999.51	70.9786	7,999.51	71.2014	7,999.51	66.5327	7,999.51	68.376	7,999.51	65.8234	7,999.51	66.6445	7,999.51	63.2316	7,999.51	65.2545	7,999.51	59.7674	7,999.51	62.9265	7,999.51	60.5218	7,999.51	59.6141	7,999.51	65.079	7,999.51	60.5176	7,999.51	65.8914	7,999.51	64.4134	7,999.51	55.6499	7,999.51	63.6378	7,999.51	53.821
8,282.23	84.3362	8,282.23	82.5715	8,282.23	83.6526	8,282.23	81.9744	8,282.23	82.649	8,282.23	79.8899	8,282.23	80.2173	8,282.23	80.479	8,282.23	79.7277	8,282.23	80.2581	8,282.23	78.8103	8,282.23	78.0103	8,282.23	79.1296	8,282.23	76.7629	8,282.23	77.1272	8,282.23	72.3792	8,282.23	75.7525	8,282.23	70.7953	8,282.23	71.4978	8,282.23	66.7355	8,282.23	68.8258	8,282.23	63.7481	8,282.23	66.1905	8,282.23	64.6672	8,282.23	65.5884	8,282.23	61.8827	8,282.23	63.3668	8,282.23	63.6049	8,282.23	58.4951	8,282.23	64.9281	8,282.23	63.2173	8,282.23	64.1115	8,282.23	65.8497	8,282.23	58.157	8,282.23	64.5659	8,282.23	54.0726
8,573.73	82.955	8,573.73	83.2934	8,573.73	83.7701	8,573.73	81.2376	8,573.73	82.0544	8,573.73	81.1108	8,573.73	79.934	8,573.73	79.9747	8,573.73	79.2714	8,573.73	80.4022	8,573.73	79.6067	8,573.73	78.3815	8,573.73	78.7559	8,573.73	76.1586	8,573.73	77.3443	8,573.73	71.0344	8,573.73	73.592	8,573.73	69.2523	8,573.73	70.682	8,573.73	65.8701	8,573.73	67.2196	8,573.73	63.1778	8,573.73	65.1015	8,573.73	62.33	8,573.73	62.1714	8,573.73	61.8671	8,573.73	59.9766	8,573.73	62.9537	8,573.73	57.3466	8,573.73	64.9998	8,573.73	61.3441	8,573.73	61.6604	8,573.73	63.3249	8,573.73	59.4134	8,573.73	64.0309	8,573.73	56.3614
8,876.95	83.9707	8,876.95	84.0292	8,876.95	83.525	8,876.95	82.9474	8,876.95	83.8784	8,876.95	79.6563	8,876.95	81.1493	8,876.95	80.2044	8,876.95	79.3863	8,876.95	80.1673	8,876.95	79.7203	8,876.95	77.938	8,876.95	78.4081	8,876.95	74.7385	8,876.95	76.1691	8,876.95	71.6961	8,876.95	73.6188	8,876.95	67.0186	8,876.95	70.6156	8,876.95	64.157	8,876.95	65.3479	8,876.95	63.4781	8,876.95	63.8744	8,876.95	61.6858	8,876.95	61.6818	8,876.95	56.6738	8,876.95	59.9114	8,876.95	62.5165	8,876.95	57.3934	8,876.95	65.1412	8,876.95	59.996	8,876.95	61.4341	8,876.95	62.4638	8,876.95	58.1823	8,876.95	63.3556	8,876.95	53.0411
9,188.96	83.513	9,188.96	83.6908	9,188.96	83.6341	9,188.96	81.7945	9,188.96	82.0002	9,188.96	80.5458	9,188.96	80.6903	9,188.96	80.3335	9,188.96	79.7777	9,188.96	79.5048	9,188.96	78.9781	9,188.96	77.1744	9,188.96	77.906	9,188.96	73.9898	9,188.96	75.4645	9,188.96	70.2908	9,188.96	71.8675	9,188.96	68.5137	9,188.96	68.5949	9,188.96	65.3582	9,188.96	64.5692	9,188.96	62.1687	9,188.96	62.6373	9,188.96	60.7671	9,188.96	57.5782	9,188.96	58.1837	9,188.96	60.2832	9,188.96	61.8862	9,188.96	57.7682	9,188.96	62.3723	9,188.96	61.0543	9,188.96	59.8589	9,188.96	62.2889	9,188.96	56.1834	9,188.96	62.185	9,188.96	51.0043
9,514.16	83.7855	9,514.16	83.9045	9,514.16	83.1365	9,514.16	82.8266	9,514.16	83.487	9,514.16	80.6984	9,514.16	81.101	9,514.16	80.2397	9,514.16	79.4537	9,514.16	78.8778	9,514.16	79.199	9,514.16	77.1716	9,514.16	77.225	9,514.16	72.9822	9,514.16	74.6428	9,514.16	71.9887	9,514.16	70.3132	9,514.16	67.0447	9,514.16	68.3843	9,514.16	64.7323	9,514.16	65.3263	9,514.16	61.6285	9,514.16	62.8353	9,514.16	61.0161	9,514.16	58.3427	9,514.16	56.87	9,514.16	58.8983	9,514.16	59.8081	9,514.16	57.3147	9,514.16	62.3046	9,514.16	57.0584	9,514.16	59.472	9,514.16	60.804	9,514.16	55.4156	9,514.16	61.0876	9,514.16	50.7085
9,849.61	83.7066	9,849.61	83.6644	9,849.61	83.2378	9,849.61	82.8114	9,849.61	83.1641	9,849.61	80.7692	9,849.61	81.5592	9,849.61	80.0071	9,849.61	80.1814	9,849.61	78.5259	9,849.61	78.4146	9,849.61	76.1197	9,849.61	76.8068	9,849.61	73.6071	9,849.61	72.8453	9,849.61	70.3038	9,849.61	70.8348	9,849.61	67.8738	9,849.61	66.8656	9,849.61	65.2563	9,849.61	66.1474	9,849.61	60.8299	9,849.61	60.2961	9,849.61	57.374	9,849.61	58.4396	9,849.61	59.6836	9,849.61	57.7699	9,849.61	58.8485	9,849.61	55.8861	9,849.61	61.5394	9,849.61	56.2187	9,849.61	58.6879	9,849.61	59.1406	9,849.61	53.7784	9,849.61	60.2649	9,849.61	50.7531
10,196.8	83.5613	10,196.8	83.297	10,196.8	83.5324	10,196.8	83.1831	10,196.8	83.4127	10,196.8	81.4257	10,196.8	81.8833	10,196.8	79.6079	10,196.8	79.6739	10,196.8	77.6072	10,196.8	78.1876	10,196.8	75.8497	10,196.8	76.3047	10,196.8	73.2491	10,196.8	73.2013	10,196.8	70.5209	10,196.8	69.9065	10,196.8	67.9983	10,196.8	66.1855	10,196.8	63.1503	10,196.8	65.5353	10,196.8	60.0365	10,196.8	60.3782	10,196.8	58.1977	10,196.8	60.3322	10,196.8	58.9082	10,196.8	54.6959	10,196.8	56.4745	10,196.8	45.7051	10,196.8	59.8975	10,196.8	55.7303	10,196.8	59.7731	10,196.8	59.6715	10,196.8	50.5711	10,196.8	58.6695	10,196.8	52.4239
10,555.7	83.5981	10,555.7	83.5458	10,555.7	83.5716	10,555.7	83.2809	10,555.7	83.2517	10,555.7	81.0876	10,555.7	82.1344	10,555.7	79.0711	10,555.7	79.7264	10,555.7	77.2282	10,555.7	76.7358	10,555.7	75.0545	10,555.7	74.4858	10,555.7	72.1263	10,555.7	71.2387	10,555.7	68.4083	10,555.7	69.7534	10,555.7	67.2432	10,555.7	65.4698	10,555.7	61.5992	10,555.7	62.9175	10,555.7	59.1964	10,555.7	58.1311	10,555.7	56.5366	10,555.7	57.4006	10,555.7	57.6509	10,555.7	49.5735	10,555.7	56.8303	10,555.7	46.2896	10,555.7	58.6605	10,555.7	54.4005	10,555.7	59.9692	10,555.7	57.9348	10,555.7	47.8036	10,555.7	56.2231	10,555.7	49.282
10,927.7	83.9261	10,927.7	83.4741	10,927.7	83.8527	10,927.7	82.8312	10,927.7	82.9257	10,927.7	81.1457	10,927.7	81.651	10,927.7	77.8926	10,927.7	78.4492	10,927.7	76.3365	10,927.7	76.2029	10,927.7	73.1437	10,927.7	72.1915	10,927.7	70.0626	10,927.7	68.3474	10,927.7	65.9999	10,927.7	65.5398	10,927.7	62.7786	10,927.7	60.4523	10,927.7	57.7175	10,927.7	59.4882	10,927.7	56.0284	10,927.7	55.0215	10,927.7	47.7939	10,927.7	55.9033	10,927.7	49.5878	10,927.7	48	10,927.7	53.126	10,927.7	37.2261	10,927.7	57.268	10,927.7	50.6111	10,927.7	56.7858	10,927.7	56.3856	10,927.7	48.6944	10,927.7	53.0399	10,927.7	53.8042
11,313	83.8971	11,313	83.3986	11,313	83.7249	11,313	82.6474	11,313	83.0533	11,313	80.2373	11,313	80.6725	11,313	77.4059	11,313	78.0416	11,313	74.1191	11,313	73.8763	11,313	70.3806	11,313	69.628	11,313	65.4305	11,313	64.33	11,313	62.1172	11,313	57.9209	11,313	59.2713	11,313	45.9696	11,313	51.7808	11,313	51.1227	11,313	56.2919	11,313	19.7588	11,313	44.4512	11,313	44.0468	11,313	43.1116	11,313	39.6473	11,313	49.5141	11,313	37.4684	11,313	53.2853	11,313	47.9033	11,313	54.6862	11,313	43.8375	11,313	51.6225	11,313	49.7184	11,313	50.9353
11,712.9	83.8699	11,712.9	83.1408	11,712.9	83.2778	11,712.9	82.2128	11,712.9	82.6428	11,712.9	78.9533	11,712.9	80.276	11,712.9	75.9748	11,712.9	77.0746	11,712.9	72.2911	11,712.9	72.1303	11,712.9	67.2637	11,712.9	68.3448	11,712.9	62.7133	11,712.9	63.2325	11,712.9	54.7112	11,712.9	56.1882	11,712.9	55.5452	11,712.9	56.1156	11,712.9	51.8157	11,712.9	51.0319	11,712.9	48.749	11,712.9	49.4613	11,712.9	50.9271	11,712.9	47.0654	11,712.9	45.8258	11,712.9	51.2498	11,712.9	42.5548	11,712.9	49.0652	11,712.9	48.0598	11,712.9	44.2734	11,712.9	53.5212	11,712.9	48.0725	11,712.9	37.2291	11,712.9	51.3889	11,712.9	51.841
12,126	83.7426	12,126	83.1411	12,126	83.5243	12,126	81.9048	12,126	82.4792	12,126	79.632	12,126	80.0551	12,126	76.2127	12,126	76.6802	12,126	71.8619	12,126	72.7601	12,126	68.2199	12,126	67.3759	12,126	62.1603	12,126	62.42	12,126	61.341	12,126	61.863	12,126	55.9299	12,126	59.029	12,126	55.4547	12,126	59.0171	12,126	52.8443	12,126	56.4405	12,126	49.9416	12,126	54.0214	12,126	52.2851	12,126	46.3652	12,126	47.1435	12,126	47.3411	12,126	47.8828	12,126	42.7307	12,126	49.6122	12,126	47.0759	12,126	41.7328	12,126	53.1936	12,126	49.271
12,553.7	84.1747	12,553.7	83.12	12,553.7	83.6283	12,553.7	82.3498	12,553.7	82.4182	12,553.7	79.0542	12,553.7	80.0359	12,553.7	75.9687	12,553.7	76.3568	12,553.7	72.2427	12,553.7	72.9952	12,553.7	66.8617	12,553.7	69.6767	12,553.7	61.8959	12,553.7	66.2025	12,553.7	59.517	12,553.7	62.6502	12,553.7	56.853	12,553.7	60.5152	12,553.7	53.691	12,553.7	58.2273	12,553.7	54.6719	12,553.7	54.6315	12,553.7	53.4232	12,553.7	53.3466	12,553.7	51.3314	12,553.7	53.8987	12,553.7	45.8532	12,553.7	51.5964	12,553.7	38.664	12,553.7	44.2199	12,553.7	50.0625	12,553.7	45.4263	12,553.7	44.1691	12,553.7	52.244	12,553.7	35.5177
12,996.1	84.138	12,996.1	83.4146	12,996.1	83.6559	12,996.1	82.1527	12,996.1	82.4693	12,996.1	79.3606	12,996.1	79.8849	12,996.1	75.8906	12,996.1	76.4058	12,996.1	72.103	12,996.1	73.0923	12,996.1	67.4653	12,996.1	69.8673	12,996.1	65.0679	12,996.1	66.8002	12,996.1	59.8055	12,996.1	63.0196	12,996.1	59.1825	12,996.1	61.4851	12,996.1	55.5643	12,996.1	57.0199	12,996.1	55.0193	12,996.1	55.7339	12,996.1	52.5733	12,996.1	54.7264	12,996.1	49.148	12,996.1	51.3078	12,996.1	49.358	12,996.1	51.0751	12,996.1	44.5524	12,996.1	45.2873	12,996.1	47.4404	12,996.1	47.2087	12,996.1	45.5273	12,996.1	48.1315	12,996.1	38.4994
13,454.6	84.2138	13,454.6	83.218	13,454.6	83.8787	13,454.6	81.9933	13,454.6	82.5666	13,454.6	78.8378	13,454.6	79.7195	13,454.6	75.3164	13,454.6	76.4149	13,454.6	71.548	13,454.6	72.6912	13,454.6	67.8242	13,454.6	69.57	13,454.6	64.2774	13,454.6	67.3484	13,454.6	62.3281	13,454.6	63.4783	13,454.6	58.468	13,454.6	61.3017	13,454.6	54.9288	13,454.6	57.7792	13,454.6	55.0478	13,454.6	55.8232	13,454.6	53.4066	13,454.6	53.8677	13,454.6	49.7128	13,454.6	50.5467	13,454.6	46.6598	13,454.6	49.6303	13,454.6	49.2919	13,454.6	43.8774	13,454.6	47.2259	13,454.6	49.4577	13,454.6	41.8578	13,454.6	41.4356	13,454.6	34.4668
13,929.2	84.4716	13,929.2	83.4524	13,929.2	83.9165	13,929.2	81.9749	13,929.2	82.5598	13,929.2	78.7552	13,929.2	79.9507	13,929.2	75.1786	13,929.2	76.5476	13,929.2	71.8832	13,929.2	72.6789	13,929.2	68.6776	13,929.2	69.6617	13,929.2	65.563	13,929.2	66.7799	13,929.2	62.4592	13,929.2	63.5667	13,929.2	59.3918	13,929.2	60.6713	13,929.2	56.2674	13,929.2	57.3797	13,929.2	54.2795	13,929.2	55.5039	13,929.2	54.0205	13,929.2	52.3817	13,929.2	49.9205	13,929.2	51.0245	13,929.2	49.7372	13,929.2	48.7098	13,929.2	50.1211	13,929.2	39.6071	13,929.2	46.1629	13,929.2	50.4523	13,929.2	44.3752	13,929.2	40.6746	13,929.2	38.8593
14,419.9	84.4923	14,419.9	83.702	14,419.9	84.1249	14,419.9	82.0308	14,419.9	82.584	14,419.9	79.2953	14,419.9	80.1034	14,419.9	75.1318	14,419.9	76.7027	14,419.9	72.1754	14,419.9	72.5303	14,419.9	68.937	14,419.9	69.1249	14,419.9	65.4499	14,419.9	65.1624	14,419.9	63.1435	14,419.9	61.6663	14,419.9	59.1238	14,419.9	58.5915	14,419.9	56.7341	14,419.9	56.4454	14,419.9	54.7496	14,419.9	53.6617	14,419.9	52.2417	14,419.9	51.2349	14,419.9	48.8	14,419.9	52.2519	14,419.9	46.8422	14,419.9	46.9957	14,419.9	50.8769	14,419.9	40.146	14,419.9	45.9233	14,419.9	49.6492	14,419.9	43.8642	14,419.9	34.7362	14,419.9	39.9408
14,928.2	84.572	14,928.2	83.5953	14,928.2	84.1894	14,928.2	82.0231	14,928.2	82.7558	14,928.2	79.4606	14,928.2	80.3929	14,928.2	75.2283	14,928.2	76.7603	14,928.2	71.6765	14,928.2	72.3829	14,928.2	68.0272	14,928.2	67.2419	14,928.2	64.1564	14,928.2	61.9363	14,928.2	61.655	14,928.2	56.7971	14,928.2	57.4471	14,928.2	55.9887	14,928.2	55.7131	14,928.2	53.2661	14,928.2	53.232	14,928.2	49.9546	14,928.2	50.6576	14,928.2	48.0632	14,928.2	47.9747	14,928.2	46.8963	14,928.2	44.4782	14,928.2	44.7282	14,928.2	49.5503	14,928.2	34.2773	14,928.2	45.4234	14,928.2	45.457	14,928.2	40.235	14,928.2	39.8705	14,928.2	34.9875
15,455.6	84.7301	15,455.6	83.8695	15,455.6	84.4204	15,455.6	82.1853	15,455.6	82.7972	15,455.6	79.3967	15,455.6	80.2237	15,455.6	75.1187	15,455.6	76.2763	15,455.6	70.553	15,455.6	70.8556	15,455.6	65.1085	15,455.6	60.8316	15,455.6	61.3955	15,455.6	58.7916	15,455.6	57.5617	15,455.6	57.9128	15,455.6	55.6528	15,455.6	55.9837	15,455.6	52.3737	15,455.6	51.8393	15,455.6	52.1811	15,455.6	50.4514	15,455.6	49.0573	15,455.6	48.4946	15,455.6	44.255	15,455.6	47.0413	15,455.6	43.5754	15,455.6	46.6828	15,455.6	45.1985	15,455.6	29.3226	15,455.6	40.8538	15,455.6	38.9475	15,455.6	35.4717	15,455.6	42.4792	15,455.6	37.2225
16,000.5	84.8053	16,000.5	83.7776	16,000.5	84.5329	16,000.5	81.7222	16,000.5	82.6479	16,000.5	78.796	16,000.5	79.5678	16,000.5	74.1421	16,000.5	74.6705	16,000.5	68.7311	16,000.5	67.8005	16,000.5	60.2758	16,000.5	55.4017	16,000.5	55.4715	16,000.5	62.4265	16,000.5	49.8081	16,000.5	60.7335	16,000.5	48.6943	16,000.5	58.7925	16,000.5	43.7842	16,000.5	55.7835	16,000.5	47.2211	16,000.5	51.8781	16,000.5	39.8452	16,000.5	51.2433	16,000.5	35.7229	16,000.5	51.1183	16,000.5	42.9605	16,000.5	47.7074	16,000.5	45.1582	16,000.5	39.6555	16,000.5	39.4541	16,000.5	46.4304	16,000.5	40.983	16,000.5	44.4811	16,000.5	41.0153
16,564.5	84.6475	16,564.5	83.466	16,564.5	84.2473	16,564.5	81.1356	16,564.5	82.1748	16,564.5	77.8526	16,564.5	78.7542	16,564.5	72.8475	16,564.5	72.4365	16,564.5	65.2437	16,564.5	62.1684	16,564.5	50.9833	16,564.5	60.6251	16,564.5	44.6376	16,564.5	64.5779	16,564.5	46.3799	16,564.5	64.7033	16,564.5	48.0173	16,564.5	61.179	16,564.5	39.3201	16,564.5	56.2989	16,564.5	39.3215	16,564.5	52.7346	16,564.5	39.8781	16,564.5	52.7403	16,564.5	38.7308	16,564.5	48.6979	16,564.5	41.6691	16,564.5	48.5698	16,564.5	42.2825	16,564.5	40.25	16,564.5	43.8904	16,564.5	51.3408	16,564.5	45.8011	16,564.5	46.6589	16,564.5	41.8182
17,148.9	84.8854	17,148.9	83.5159	17,148.9	84.1575	17,148.9	80.6373	17,148.9	81.8448	17,148.9	76.4633	17,148.9	77.3588	17,148.9	70.7797	17,148.9	69.6263	17,148.9	59.9728	17,148.9	53.6663	17,148.9	53.8035	17,148.9	63.6999	17,148.9	58.2606	17,148.9	67.2316	17,148.9	57.6554	17,148.9	66.0906	17,148.9	55.153	17,148.9	61.8007	17,148.9	46.3702	17,148.9	58.8147	17,148.9	45.6993	17,148.9	54.6802	17,148.9	44.4229	17,148.9	53.8903	17,148.9	43.2317	17,148.9	50.4549	17,148.9	44.0568	17,148.9	48.7328	17,148.9	37.8827	17,148.9	37.3566	17,148.9	47.5435	17,148.9	51.7942	17,148.9	48.0015	17,148.9	44.1509	17,148.9	41.6475
17,752.4	84.8673	17,752.4	83.2757	17,752.4	84.1958	17,752.4	80.1905	17,752.4	81.4084	17,752.4	74.5382	17,752.4	75.7676	17,752.4	68.352	17,752.4	65.2386	17,752.4	58.1877	17,752.4	51.9396	17,752.4	61.1145	17,752.4	65.0733	17,752.4	62.7858	17,752.4	67.8851	17,752.4	61.0411	17,752.4	65.3528	17,752.4	55.6754	17,752.4	61.2604	17,752.4	50.1668	17,752.4	59.1229	17,752.4	46.1625	17,752.4	54.3134	17,752.4	43.1505	17,752.4	51.6258	17,752.4	43.8521	17,752.4	47.0199	17,752.4	41.6174	17,752.4	45.975	17,752.4	40.3816	17,752.4	35.9127	17,752.4	49.1139	17,752.4	50.5473	17,752.4	46.3661	17,752.4	41.2271	17,752.4	41.1911
18,379.4	84.9298	18,379.4	83.0922	18,379.4	84.1772	18,379.4	79.4079	18,379.4	80.856	18,379.4	72.2328	18,379.4	74.1697	18,379.4	65.3487	18,379.4	55.9117	18,379.4	61.8581	18,379.4	62.5992	18,379.4	63.7077	18,379.4	65.8354	18,379.4	62.8491	18,379.4	66.647	18,379.4	59.3382	18,379.4	65.1365	18,379.4	55.2988	18,379.4	59.7127	18,379.4	51.4644	18,379.4	57.1472	18,379.4	48.0447	18,379.4	50.8765	18,379.4	46.7177	18,379.4	49.4305	18,379.4	44.7472	18,379.4	47.1321	18,379.4	42.4915	18,379.4	44.7095	18,379.4	42.8277	18,379.4	32.58	18,379.4	49.0416	18,379.4	52.056	18,379.4	46.855	18,379.4	42.8361	18,379.4	42.0804
19,026.9	84.7816	19,026.9	82.745	19,026.9	83.9726	19,026.9	78.2811	19,026.9	80.1654	19,026.9	69.5165	19,026.9	72.2848	19,026.9	65.5669	19,026.9	52.4406	19,026.9	64.6803	19,026.9	65.2426	19,026.9	65.0814	19,026.9	66.9285	19,026.9	59.6817	19,026.9	67.5656	19,026.9	59.2949	19,026.9	63.6497	19,026.9	51.9093	19,026.9	59.9822	19,026.9	49.931	19,026.9	56.8554	19,026.9	50.3556	19,026.9	52.6716	19,026.9	48.8253	19,026.9	52.7719	19,026.9	45.6785	19,026.9	44.344	19,026.9	39.9849	19,026.9	43.3249	19,026.9	44.3768	19,026.9	27.7576	19,026.9	47.9409	19,026.9	51.6677	19,026.9	47.2024	19,026.9	43.2177	19,026.9	41.6086
19,697.8	83.9777	19,697.8	81.826	19,697.8	83.0916	19,697.8	77.0722	19,697.8	79.0922	19,697.8	64.7916	19,697.8	70.4555	19,697.8	66.6332	19,697.8	62.9114	19,697.8	67.5991	19,697.8	67.6004	19,697.8	66.4287	19,697.8	67.8411	19,697.8	61.4792	19,697.8	67.7241	19,697.8	57.9419	19,697.8	62.2125	19,697.8	53.4964	19,697.8	59.4599	19,697.8	49.9729	19,697.8	56.5477	19,697.8	47.2379	19,697.8	51.7428	19,697.8	46.9848	19,697.8	50.9046	19,697.8	44.3742	19,697.8	37.9131	19,697.8	37.8594	19,697.8	42.5578	19,697.8	44.6713	19,697.8	28.8166	19,697.8	45.1509	19,697.8	48.0368	19,697.8	44.2869	19,697.8	40.8351	19,697.8	42.0912
19,999.5	83.3616	19,999.5	81.179	19,999.5	82.4709	19,999.5	77.1349	19,999.5	78.6396	19,999.5	67.3618	19,999.5	70.5319	19,999.5	62.8241	19,999.5	60.1237	19,999.5	68.3812	19,999.5	69.041	19,999.5	66.9507	19,999.5	69.1076	19,999.5	65.8177	19,999.5	67.939	19,999.5	58.7937	19,999.5	63.4689	19,999.5	54.8936	19,999.5	60.9485	19,999.5	55.2864	19,999.5	58.7487	19,999.5	45.0052	19,999.5	51.3036	19,999.5	53.6484	19,999.5	54.6934	19,999.5	41.5523	19,999.5	54.9445	19,999.5	45.1509	19,999.5	43.9901	19,999.5	39.5796	19,999.5	41.7831	19,999.5	52.7802	19,999.5	43.8719	19,999.5	50.8198	19,999.5	41.3898	19,999.5	41.4686
