"SPL Vertical"																																																																							
"On-Axis"		"10°"		"-10°"		"20°"		"-20°"		"30°"		"-30°"		"40°"		"-40°"		"50°"		"-50°"		"60°"		"-60°"		"70°"		"-70°"		"80°"		"-80°"		"90°"		"-90°"		"100°"		"-100°"		"110°"		"-110°"		"120°"		"-120°"		"130°"		"-130°"		"140°"		"-140°"		"150°"		"-150°"		"160°"		"-160°"		"170°"		"-170°"		"180°"	
"Frequency [Hz]"	"Sound Pessure Level [dB]  / [2.83V 1m] "	"Frequency [Hz]"	"Sound Pessure Level [dB]  / [2.83V 1m] "	"Frequency [Hz]"	"Sound Pessure Level [dB]  / [2.83V 1m] "	"Frequency [Hz]"	"Sound Pessure Level [dB]  / [2.83V 1m] "	"Frequency [Hz]"	"Sound Pessure Level [dB]  / [2.83V 1m] "	"Frequency [Hz]"	"Sound Pessure Level [dB]  / [2.83V 1m] "	"Frequency [Hz]"	"Sound Pessure Level [dB]  / [2.83V 1m] "	"Frequency [Hz]"	"Sound Pessure Level [dB]  / [2.83V 1m] "	"Frequency [Hz]"	"Sound Pessure Level [dB]  / [2.83V 1m] "	"Frequency [Hz]"	"Sound Pessure Level [dB]  / [2.83V 1m] "	"Frequency [Hz]"	"Sound Pessure Level [dB]  / [2.83V 1m] "	"Frequency [Hz]"	"Sound Pessure Level [dB]  / [2.83V 1m] "	"Frequency [Hz]"	"Sound Pessure Level [dB]  / [2.83V 1m] "	"Frequency [Hz]"	"Sound Pessure Level [dB]  / [2.83V 1m] "	"Frequency [Hz]"	"Sound Pessure Level [dB]  / [2.83V 1m] "	"Frequency [Hz]"	"Sound Pessure Level [dB]  / [2.83V 1m] "	"Frequency [Hz]"	"Sound Pessure Level [dB]  / [2.83V 1m] "	"Frequency [Hz]"	"Sound Pessure Level [dB]  / [2.83V 1m] "	"Frequency [Hz]"	"Sound Pessure Level [dB]  / [2.83V 1m] "	"Frequency [Hz]"	"Sound Pessure Level [dB]  / [2.83V 1m] "	"Frequency [Hz]"	"Sound Pessure Level [dB]  / [2.83V 1m] "	"Frequency [Hz]"	"Sound Pessure Level [dB]  / [2.83V 1m] "	"Frequency [Hz]"	"Sound Pessure Level [dB]  / [2.83V 1m] "	"Frequency [Hz]"	"Sound Pessure Level [dB]  / [2.83V 1m] "	"Frequency [Hz]"	"Sound Pessure Level [dB]  / [2.83V 1m] "	"Frequency [Hz]"	"Sound Pessure Level [dB]  / [2.83V 1m] "	"Frequency [Hz]"	"Sound Pessure Level [dB]  / [2.83V 1m] "	"Frequency [Hz]"	"Sound Pessure Level [dB]  / [2.83V 1m] "	"Frequency [Hz]"	"Sound Pessure Level [dB]  / [2.83V 1m] "	"Frequency [Hz]"	"Sound Pessure Level [dB]  / [2.83V 1m] "	"Frequency [Hz]"	"Sound Pessure Level [dB]  / [2.83V 1m] "	"Frequency [Hz]"	"Sound Pessure Level [dB]  / [2.83V 1m] "	"Frequency [Hz]"	"Sound Pessure Level [dB]  / [2.83V 1m] "	"Frequency [Hz]"	"Sound Pessure Level [dB]  / [2.83V 1m] "	"Frequency [Hz]"	"Sound Pessure Level [dB]  / [2.83V 1m] "	"Frequency [Hz]"	"Sound Pessure Level [dB]  / [2.83V 1m] "
20.5078	52.9989	20.5078	52.8728	20.5078	53.1038	20.5078	52.7294	20.5078	53.183	20.5078	52.5717	20.5078	53.2315	20.5078	52.4014	20.5078	53.2443	20.5078	52.2196	20.5078	53.2168	20.5078	52.0268	20.5078	53.1455	20.5078	51.8227	20.5078	53.0275	20.5078	51.6077	20.5078	52.8614	20.5078	51.3822	20.5078	52.6472	20.5078	51.1477	20.5078	52.387	20.5078	50.9076	20.5078	52.0853	20.5078	50.6673	20.5078	51.7497	20.5078	50.4359	20.5078	51.3921	20.5078	50.227	20.5078	51.0293	20.5078	50.0581	20.5078	50.6827	20.5078	49.9493	20.5078	50.3771	20.5078	49.9194	20.5078	50.1369	20.5078	49.9812
21.9727	56.094	21.9727	56.0082	21.9727	56.1625	21.9727	55.9081	21.9727	56.2107	21.9727	55.7967	21.9727	56.2363	21.9727	55.6766	21.9727	56.2373	21.9727	55.5499	21.9727	56.2125	21.9727	55.4184	21.9727	56.1611	21.9727	55.2834	21.9727	56.0827	21.9727	55.1461	21.9727	55.9779	21.9727	55.0078	21.9727	55.8476	21.9727	54.8702	21.9727	55.694	21.9727	54.736	21.9727	55.5205	21.9727	54.6088	21.9727	55.3319	21.9727	54.4937	21.9727	55.135	21.9727	54.3976	21.9727	54.9379	21.9727	54.3283	21.9727	54.7508	21.9727	54.2938	21.9727	54.5842	21.9727	54.3006	21.9727	54.4486	21.9727	54.3525
23.4375	55.7896	23.4375	55.7119	23.4375	55.8537	23.4375	55.6227	23.4375	55.9022	23.4375	55.5242	23.4375	55.9333	23.4375	55.4185	23.4375	55.9451	23.4375	55.3078	23.4375	55.9362	23.4375	55.1942	23.4375	55.9052	23.4375	55.0797	23.4375	55.8513	23.4375	54.9663	23.4375	55.7743	23.4375	54.8557	23.4375	55.6748	23.4375	54.75	23.4375	55.5544	23.4375	54.6512	23.4375	55.416	23.4375	54.5619	23.4375	55.264	23.4375	54.4854	23.4375	55.104	23.4375	54.4259	23.4375	54.9431	23.4375	54.388	23.4375	54.7892	23.4375	54.3769	23.4375	54.6507	23.4375	54.3967	23.4375	54.5355	23.4375	54.4497
24.9023	56.2517	24.9023	56.1487	24.9023	56.3451	24.9023	56.04	24.9023	56.4249	24.9023	55.9289	24.9023	56.4874	24.9023	55.8178	24.9023	56.5295	24.9023	55.7086	24.9023	56.5485	24.9023	55.6023	24.9023	56.543	24.9023	55.4999	24.9023	56.5119	24.9023	55.4025	24.9023	56.4554	24.9023	55.3111	24.9023	56.3744	24.9023	55.2276	24.9023	56.271	24.9023	55.1543	24.9023	56.1483	24.9023	55.094	24.9023	56.0103	24.9023	55.0501	24.9023	55.8621	24.9023	55.0262	24.9023	55.7097	24.9023	55.0258	24.9023	55.5594	24.9023	55.0516	24.9023	55.4178	24.9023	55.105	24.9023	55.2914	24.9023	55.1857
26.3672	56.8879	26.3672	56.7986	26.3672	56.9709	26.3672	56.7054	26.3672	57.0452	26.3672	56.6106	26.3672	57.1081	26.3672	56.5167	26.3672	57.1571	26.3672	56.4256	26.3672	57.1898	26.3672	56.3393	26.3672	57.2039	26.3672	56.2596	26.3672	57.198	26.3672	56.1884	26.3672	57.1714	26.3672	56.1271	26.3672	57.1247	26.3672	56.0776	26.3672	57.0594	26.3672	56.0415	26.3672	56.9784	26.3672	56.0205	26.3672	56.8848	26.3672	56.0162	26.3672	56.7823	26.3672	56.0298	26.3672	56.6746	26.3672	56.0619	26.3672	56.5653	26.3672	56.1122	26.3672	56.4578	26.3672	56.1795	26.3672	56.3554	26.3672	56.2616
27.832	57.8391	27.832	57.7583	27.832	57.9115	27.832	57.6711	27.832	57.9737	27.832	57.5796	27.832	58.0234	27.832	57.486	27.832	58.0588	27.832	57.3925	27.832	58.0776	27.832	57.3013	27.832	58.0781	27.832	57.2144	27.832	58.0588	27.832	57.1337	27.832	58.0192	27.832	57.0608	27.832	57.9601	27.832	56.9977	27.832	57.8829	27.832	56.946	27.832	57.7906	27.832	56.9077	27.832	57.6866	27.832	56.8849	27.832	57.5749	27.832	56.8794	27.832	57.46	27.832	56.8929	27.832	57.3461	27.832	56.9262	27.832	57.2372	27.832	56.9791	27.832	57.1374	27.832	57.0503
29.2969	58.869	29.2969	58.7679	29.2969	58.9587	29.2969	58.6588	29.2969	59.034	29.2969	58.5449	29.2969	59.0921	29.2969	58.4297	29.2969	59.1307	29.2969	58.316	29.2969	59.148	29.2969	58.2065	29.2969	59.1427	29.2969	58.1036	29.2969	59.1141	29.2969	58.0095	29.2969	59.0623	29.2969	57.9262	29.2969	58.9887	29.2969	57.8556	29.2969	58.8956	29.2969	57.7997	29.2969	58.7862	29.2969	57.7603	29.2969	58.6649	29.2969	57.7393	29.2969	58.5361	29.2969	57.7381	29.2969	58.4048	29.2969	57.758	29.2969	58.2756	29.2969	57.7991	29.2969	58.1529	29.2969	57.8611	29.2969	58.0407	29.2969	57.9424
30.7617	59.6719	30.7617	59.5881	30.7617	59.7456	30.7617	59.4971	30.7617	59.8062	30.7617	59.4017	30.7617	59.8509	30.7617	59.3047	30.7617	59.877	30.7617	59.2083	30.7617	59.8822	30.7617	59.1148	30.7617	59.8646	30.7617	59.026	30.7617	59.8233	30.7617	58.9432	30.7617	59.7588	30.7617	58.868	30.7617	59.6726	30.7617	58.8014	30.7617	59.568	30.7617	58.7447	30.7617	59.4495	30.7617	58.6988	30.7617	59.3228	30.7617	58.6648	30.7617	59.1943	30.7617	58.6439	30.7617	59.0704	30.7617	58.6372	30.7617	58.9569	30.7617	58.646	30.7617	58.8582	30.7617	58.6716	30.7617	58.7772	30.7617	58.715
32.2266	60.2561	32.2266	60.1619	32.2266	60.3417	32.2266	60.0625	32.2266	60.4157	32.2266	59.961	32.2266	60.4753	32.2266	59.8604	32.2266	60.5181	32.2266	59.7635	32.2266	60.5424	32.2266	59.6729	32.2266	60.547	32.2266	59.5907	32.2266	60.5313	32.2266	59.5187	32.2266	60.4958	32.2266	59.4588	32.2266	60.4415	32.2266	59.4121	32.2266	60.3704	32.2266	59.3798	32.2266	60.2852	32.2266	59.3627	32.2266	60.1891	32.2266	59.3615	32.2266	60.0859	32.2266	59.3765	32.2266	59.9793	32.2266	59.4074	32.2266	59.8731	32.2266	59.4539	32.2266	59.7708	32.2266	59.515	32.2266	59.6754	32.2266	59.5894
33.6914	61.0999	33.6914	61.0095	33.6914	61.1812	33.6914	60.9128	33.6914	61.2504	33.6914	60.8128	33.6914	61.3048	33.6914	60.7125	33.6914	61.342	33.6914	60.6145	33.6914	61.36	33.6914	60.5212	33.6914	61.3572	33.6914	60.4349	33.6914	61.333	33.6914	60.3573	33.6914	61.2875	33.6914	60.2899	33.6914	61.2217	33.6914	60.234	33.6914	61.1378	33.6914	60.1908	33.6914	61.039	33.6914	60.1609	33.6914	60.9292	33.6914	60.1452	33.6914	60.813	33.6914	60.1444	33.6914	60.6955	33.6914	60.1591	33.6914	60.5815	33.6914	60.19	33.6914	60.4756	33.6914	60.2374	33.6914	60.3813	33.6914	60.3014
35.1562	62.0183	35.1562	61.932	35.1562	62.0963	35.1562	61.8397	35.1562	62.164	35.1562	61.7436	35.1562	62.2192	35.1562	61.646	35.1562	62.2596	35.1562	61.5492	35.1562	62.2834	35.1562	61.4556	35.1562	62.2892	35.1562	61.3678	35.1562	62.2759	35.1562	61.2883	35.1562	62.2435	35.1562	61.2196	35.1562	62.1928	35.1562	61.1638	35.1562	62.1252	35.1562	61.1231	35.1562	62.0432	35.1562	61.0991	35.1562	61.9496	35.1562	61.0932	35.1562	61.8479	35.1562	61.1061	35.1562	61.7413	35.1562	61.1379	35.1562	61.6333	35.1562	61.1877	35.1562	61.5274	35.1562	61.254	35.1562	61.4267	35.1562	61.3346
36.6211	62.583	36.6211	62.4871	36.6211	62.6683	36.6211	62.3839	36.6211	62.7399	36.6211	62.2767	36.6211	62.7949	36.6211	62.1688	36.6211	62.8308	36.6211	62.063	36.6211	62.846	36.6211	61.9622	36.6211	62.8392	36.6211	61.8688	36.6211	62.8103	36.6211	61.785	36.6211	62.76	36.6211	61.713	36.6211	62.6901	36.6211	61.6544	36.6211	62.6033	36.6211	61.6107	36.6211	62.5031	36.6211	61.583	36.6211	62.3938	36.6211	61.5721	36.6211	62.2796	36.6211	61.5785	36.6211	62.1648	36.6211	61.6021	36.6211	62.0534	36.6211	61.6424	36.6211	61.9487	36.6211	61.6986	36.6211	61.8533	36.6211	61.7694
38.0859	63.5977	38.0859	63.5065	38.0859	63.6795	38.0859	63.4091	38.0859	63.7488	38.0859	63.3087	38.0859	63.8026	38.0859	63.2082	38.0859	63.8386	38.0859	63.1106	38.0859	63.8546	38.0859	63.0184	38.0859	63.8494	38.0859	62.9341	38.0859	63.8225	38.0859	62.8596	38.0859	63.7744	38.0859	62.7966	38.0859	63.7068	38.0859	62.7464	38.0859	63.6223	38.0859	62.7099	38.0859	63.5247	38.0859	62.6878	38.0859	63.4185	38.0859	62.6801	38.0859	63.3087	38.0859	62.6868	38.0859	63.2002	38.0859	62.7074	38.0859	63.0972	38.0859	62.7415	38.0859	63.003	38.0859	62.7885	38.0859	62.9196	38.0859	62.8479
39.5508	64.1473	39.5508	64.0506	39.5508	64.2373	39.5508	63.9505	39.5508	64.3174	39.5508	63.8506	39.5508	64.3847	39.5508	63.7544	39.5508	64.4368	39.5508	63.6651	39.5508	64.4718	39.5508	63.5856	39.5508	64.4885	39.5508	63.5183	39.5508	64.4861	39.5508	63.4653	39.5508	64.4649	39.5508	63.4276	39.5508	64.4258	39.5508	63.406	39.5508	64.3705	39.5508	63.4004	39.5508	64.3018	39.5508	63.4103	39.5508	64.2228	39.5508	63.4346	39.5508	64.1371	39.5508	63.4717	39.5508	64.0485	39.5508	63.5201	39.5508	63.9599	39.5508	63.5777	39.5508	63.8738	39.5508	63.6429	39.5508	63.7917	39.5508	63.7146
41.0156	63.1083	41.0156	63.0004	41.0156	63.2085	41.0156	62.8884	41.0156	63.2978	41.0156	62.7761	41.0156	63.3737	41.0156	62.6673	41.0156	63.4341	41.0156	62.5657	41.0156	63.4777	41.0156	62.475	41.0156	63.5034	41.0156	62.3987	41.0156	63.5109	41.0156	62.34	41.0156	63.5003	41.0156	62.3014	41.0156	63.4721	41.0156	62.2847	41.0156	63.428	41.0156	62.2906	41.0156	63.3699	41.0156	62.3188	41.0156	63.3007	41.0156	62.3674	41.0156	63.2232	41.0156	62.4332	41.0156	63.1403	41.0156	62.5121	41.0156	63.0541	41.0156	62.5995	41.0156	62.9657	41.0156	62.6913	41.0156	62.8757	41.0156	62.7839
42.4805	64.4962	42.4805	64.4079	42.4805	64.5705	42.4805	64.3088	42.4805	64.6283	42.4805	64.2018	42.4805	64.6673	42.4805	64.0903	42.4805	64.686	42.4805	63.9772	42.4805	64.6833	42.4805	63.8655	42.4805	64.659	42.4805	63.7578	42.4805	64.6133	42.4805	63.6569	42.4805	64.5475	42.4805	63.5653	42.4805	64.4635	42.4805	63.4852	42.4805	64.364	42.4805	63.4189	42.4805	64.2521	42.4805	63.3683	42.4805	64.1314	42.4805	63.335	42.4805	64.0059	42.4805	63.3203	42.4805	63.88	42.4805	63.325	42.4805	63.7581	42.4805	63.3499	42.4805	63.6449	42.4805	63.3951	42.4805	63.5445	42.4805	63.4604
43.9453	65.2881	43.9453	65.2001	43.9453	65.3635	43.9453	65.1019	43.9453	65.4234	43.9453	64.9963	43.9453	65.4655	43.9453	64.8858	43.9453	65.4877	43.9453	64.7731	43.9453	65.4883	43.9453	64.6608	43.9453	65.4663	43.9453	64.5513	43.9453	65.4216	43.9453	64.4474	43.9453	65.3551	43.9453	64.3518	43.9453	65.2686	43.9453	64.2673	43.9453	65.1648	43.9453	64.1963	43.9453	65.0473	43.9453	64.1414	43.9453	64.9204	43.9453	64.1046	43.9453	64.7889	43.9453	64.0874	43.9453	64.6576	43.9453	64.0909	43.9453	64.5315	43.9453	64.1156	43.9453	64.4154	43.9453	64.1614	43.9453	64.3131	43.9453	64.2277
45.4102	65.937	45.4102	65.8419	45.4102	66.0207	45.4102	65.7384	45.4102	66.0901	45.4102	65.6297	45.4102	66.1425	45.4102	65.5184	45.4102	66.1757	45.4102	65.4074	45.4102	66.188	45.4102	65.2991	45.4102	66.1785	45.4102	65.1959	45.4102	66.147	45.4102	65.1002	45.4102	66.0942	45.4102	65.0141	45.4102	66.0216	45.4102	64.9401	45.4102	65.9314	45.4102	64.8804	45.4102	65.8265	45.4102	64.837	45.4102	65.7101	45.4102	64.8121	45.4102	65.5861	45.4102	64.8073	45.4102	65.4585	45.4102	64.8237	45.4102	65.3318	45.4102	64.862	45.4102	65.2104	45.4102	64.9218	45.4102	65.099	45.4102	65.0017
46.875	66.5431	46.875	66.4543	46.875	66.6234	46.875	66.36	46.875	66.6923	46.875	66.2633	46.875	66.747	46.875	66.1669	46.875	66.7853	46.875	66.0737	46.875	66.8056	46.875	65.9859	46.875	66.8068	46.875	65.9057	46.875	66.7887	46.875	65.8352	46.875	66.7518	46.875	65.776	46.875	66.6977	46.875	65.7296	46.875	66.6286	46.875	65.6974	46.875	66.5471	46.875	65.6804	46.875	66.4566	46.875	65.679	46.875	66.3603	46.875	65.6935	46.875	66.2615	46.875	65.7237	46.875	66.1632	46.875	65.7687	46.875	66.0682	46.875	65.8274	46.875	65.9791	46.875	65.8982
48.3398	67.0992	48.3398	67.0143	48.3398	67.1764	48.3398	66.9246	48.3398	67.2431	48.3398	66.8331	48.3398	67.2967	48.3398	66.7427	48.3398	67.3353	48.3398	66.656	48.3398	67.357	48.3398	66.5757	48.3398	67.361	48.3398	66.5038	48.3398	67.347	48.3398	66.4423	48.3398	67.3156	48.3398	66.3929	48.3398	67.2684	48.3398	66.3566	48.3398	67.2076	48.3398	66.3344	48.3398	67.1357	48.3398	66.3267	48.3398	67.0557	48.3398	66.3335	48.3398	66.9706	48.3398	66.3544	48.3398	66.8834	48.3398	66.3886	48.3398	66.7964	48.3398	66.4348	48.3398	66.712	48.3398	66.4918	48.3398	66.632	48.3398	66.558
51.2695	68.2102	51.2695	68.1217	51.2695	68.2889	51.2695	68.0266	51.2695	68.3553	51.2695	67.9284	51.2695	68.407	51.2695	67.8306	51.2695	68.4426	51.2695	67.7365	51.2695	68.4607	51.2695	67.6493	51.2695	68.4609	51.2695	67.5717	51.2695	68.4431	51.2695	67.506	51.2695	68.4083	51.2695	67.4539	51.2695	68.3577	51.2695	67.4167	51.2695	68.2937	51.2695	67.3948	51.2695	68.2187	51.2695	67.3883	51.2695	68.1357	51.2695	67.3969	51.2695	68.0479	51.2695	67.4196	51.2695	67.958	51.2695	67.4553	51.2695	67.8689	51.2695	67.5026	51.2695	67.7828	51.2695	67.5603	51.2695	67.7017	51.2695	67.627
52.7344	68.6758	52.7344	68.5875	52.7344	68.7542	52.7344	68.4924	52.7344	68.8204	52.7344	68.3936	52.7344	68.8723	52.7344	68.2946	52.7344	68.9086	52.7344	68.1988	52.7344	68.9281	52.7344	68.1092	52.7344	68.9304	52.7344	68.0287	52.7344	68.9155	52.7344	67.9597	52.7344	68.8838	52.7344	67.9039	52.7344	68.8367	52.7344	67.8629	52.7344	68.7759	52.7344	67.8374	52.7344	68.7034	52.7344	67.828	52.7344	68.6219	52.7344	67.8347	52.7344	68.5337	52.7344	67.8571	52.7344	68.4416	52.7344	67.8945	52.7344	68.3479	52.7344	67.9457	52.7344	68.2554	52.7344	68.0094	52.7344	68.1664	52.7344	68.0836
54.1992	69.1486	54.1992	69.0598	54.1992	69.2278	54.1992	68.9644	54.1992	69.2945	54.1992	68.8658	54.1992	69.3467	54.1992	68.7675	54.1992	69.3829	54.1992	68.6728	54.1992	69.4019	54.1992	68.5848	54.1992	69.4034	54.1992	68.5064	54.1992	69.3875	54.1992	68.4398	54.1992	69.3551	54.1992	68.387	54.1992	69.3079	54.1992	68.3494	54.1992	69.2479	54.1992	68.328	54.1992	69.1777	54.1992	68.3231	54.1992	69.1	54.1992	68.3346	54.1992	69.0173	54.1992	68.3619	54.1992	68.9318	54.1992	68.4036	54.1992	68.8454	54.1992	68.458	54.1992	68.7595	54.1992	68.5231	54.1992	68.676	54.1992	68.5965
55.6641	69.7111	55.6641	69.6217	55.6641	69.7909	55.6641	69.5257	55.6641	69.8584	55.6641	69.4261	55.6641	69.911	55.6641	69.326	55.6641	69.9466	55.6641	69.2282	55.6641	69.9638	55.6641	69.1355	55.6641	69.9617	55.6641	69.0507	55.6641	69.9402	55.6641	68.9762	55.6641	69.9001	55.6641	68.9142	55.6641	69.8432	55.6641	68.8664	55.6641	69.7719	55.6641	68.8343	55.6641	69.6893	55.6641	68.8187	55.6641	69.5987	55.6641	68.82	55.6641	69.5034	55.6641	68.8378	55.6641	69.4064	55.6641	68.8712	55.6641	69.3106	55.6641	68.919	55.6641	69.218	55.6641	68.9795	55.6641	69.1308	55.6641	69.0507
58.5938	70.5845	58.5938	70.4935	58.5938	70.6671	58.5938	70.3971	58.5938	70.7382	58.5938	70.2987	58.5938	70.7952	58.5938	70.2015	58.5938	70.8362	58.5938	70.1088	58.5938	70.8595	58.5938	70.0235	58.5938	70.8645	58.5938	69.9486	58.5938	70.8513	58.5938	69.8863	58.5938	70.8209	58.5938	69.8388	58.5938	70.7754	58.5938	69.8075	58.5938	70.7171	58.5938	69.7934	58.5938	70.6491	58.5938	69.7965	58.5938	70.5745	58.5938	69.8163	58.5938	70.4958	58.5938	69.8514	58.5938	70.4152	58.5938	69.8998	58.5938	70.3343	58.5938	69.959	58.5938	70.2541	58.5938	70.0262	58.5938	70.1754	58.5938	70.099
60.0586	71.0691	60.0586	70.9787	60.0586	71.1503	60.0586	70.8823	60.0586	71.2194	60.0586	70.783	60.0586	71.2738	60.0586	70.6842	60.0586	71.3115	60.0586	70.589	60.0586	71.3309	60.0586	70.5004	60.0586	71.3313	60.0586	70.4214	60.0586	71.3128	60.0586	70.3542	60.0586	71.2766	60.0586	70.301	60.0586	71.2246	60.0586	70.2632	60.0586	71.1593	60.0586	70.2419	60.0586	71.0839	60.0586	70.2373	60.0586	71.0016	60.0586	70.2491	60.0586	70.9156	60.0586	70.2762	60.0586	70.8283	60.0586	70.3171	60.0586	70.742	60.0586	70.3698	60.0586	70.6581	60.0586	70.432	60.0586	70.5777	60.0586	70.5019
62.9883	71.9191	62.9883	71.8272	62.9883	72.0013	62.9883	71.7288	62.9883	72.0707	62.9883	71.6272	62.9883	72.1247	62.9883	71.5258	62.9883	72.1613	62.9883	71.4279	62.9883	72.179	62.9883	71.3365	62.9883	72.1772	62.9883	71.2545	62.9883	72.1561	62.9883	71.1845	62.9883	72.1168	62.9883	71.1283	62.9883	72.0615	62.9883	71.0878	62.9883	71.9928	62.9883	71.0637	62.9883	71.9138	62.9883	71.0564	62.9883	71.8279	62.9883	71.0656	62.9883	71.7383	62.9883	71.0904	62.9883	71.6475	62.9883	71.1294	62.9883	71.558	62.9883	71.1806	62.9883	71.4714	62.9883	71.2422	62.9883	71.3891	62.9883	71.3122
64.4531	72.3611	64.4531	72.2675	64.4531	72.444	64.4531	72.1666	64.4531	72.5134	64.4531	72.0618	64.4531	72.5666	64.4531	71.9565	64.4531	72.6014	64.4531	71.8539	64.4531	72.6166	64.4531	71.7574	64.4531	72.6114	64.4531	71.6698	64.4531	72.5862	64.4531	71.5937	64.4531	72.542	64.4531	71.5312	64.4531	72.481	64.4531	71.4842	64.4531	72.4058	64.4531	71.4538	64.4531	72.3199	64.4531	71.4403	64.4531	72.2267	64.4531	71.4438	64.4531	72.1295	64.4531	71.4636	64.4531	72.0316	64.4531	71.4986	64.4531	71.9356	64.4531	71.5471	64.4531	71.8436	64.4531	71.6075	64.4531	71.7572	64.4531	71.6781
67.3828	73.2057	67.3828	73.1081	67.3828	73.2926	67.3828	73.003	67.3828	73.3659	67.3828	72.8938	67.3828	73.423	67.3828	72.7842	67.3828	73.462	67.3828	72.6777	67.3828	73.4817	67.3828	72.5775	67.3828	73.4812	67.3828	72.4866	67.3828	73.4607	67.3828	72.4076	67.3828	73.4211	67.3828	72.3427	67.3828	73.3638	67.3828	72.2935	67.3828	73.2912	67.3828	72.261	67.3828	73.2057	67.3828	72.2461	67.3828	73.1103	67.3828	72.2488	67.3828	73.0082	67.3828	72.269	67.3828	72.9026	67.3828	72.3059	67.3828	72.7965	67.3828	72.3586	67.3828	72.693	67.3828	72.4255	67.3828	72.595	67.3828	72.505
68.8477	73.5763	68.8477	73.4823	68.8477	73.6615	68.8477	73.3826	68.8477	73.7349	68.8477	73.2806	68.8477	73.7939	68.8477	73.1795	68.8477	73.8367	68.8477	73.0828	68.8477	73.8619	68.8477	72.9933	68.8477	73.8687	68.8477	72.9138	68.8477	73.8572	68.8477	72.8466	68.8477	73.8284	68.8477	72.7934	68.8477	73.7835	68.8477	72.7557	68.8477	73.7245	68.8477	72.7343	68.8477	73.6535	68.8477	72.7296	68.8477	73.5729	68.8477	72.7415	68.8477	73.4851	68.8477	72.7696	68.8477	73.3923	68.8477	72.8131	68.8477	73.297	68.8477	72.8707	68.8477	73.2016	68.8477	72.9406	68.8477	73.1086	68.8477	73.0208
71.7773	74.3609	71.7773	74.2667	71.7773	74.4453	71.7773	74.1659	71.7773	74.5166	71.7773	74.0623	71.7773	74.5723	71.7773	73.9593	71.7773	74.6104	71.7773	73.8606	71.7773	74.6298	71.7773	73.7694	71.7773	74.6302	71.7773	73.6887	71.7773	74.6123	71.7773	73.6212	71.7773	74.5777	71.7773	73.5692	71.7773	74.5285	71.7773	73.5343	71.7773	74.4674	71.7773	73.5175	71.7773	74.3973	71.7773	73.519	71.7773	74.3208	71.7773	73.5382	71.7773	74.2404	71.7773	73.5736	71.7773	74.1578	71.7773	73.6232	71.7773	74.0745	71.7773	73.6843	71.7773	73.9915	71.7773	73.7541	71.7773	73.9096	71.7773	73.8299
74.707	75.1511	74.707	75.0595	74.707	75.2325	74.707	74.9609	74.707	75.3003	74.707	74.859	74.707	75.3521	74.707	74.7572	74.707	75.3857	74.707	74.6589	74.707	75.4	74.707	74.5672	74.707	75.3947	74.707	74.4848	74.707	75.3701	74.707	74.414	74.707	75.3277	74.707	74.3567	74.707	75.2696	74.707	74.3145	74.707	75.1986	74.707	74.2884	74.707	75.1178	74.707	74.2787	74.707	75.0305	74.707	74.2852	74.707	74.9398	74.707	74.3072	74.707	74.8486	74.707	74.3432	74.707	74.7592	74.707	74.3916	74.707	74.6734	74.707	74.4503	74.707	74.5925	74.707	74.5178
77.6367	75.8518	77.6367	75.7599	77.6367	75.9339	77.6367	75.6617	77.6367	76.0031	77.6367	75.5611	77.6367	76.0566	77.6367	75.4616	77.6367	76.0924	77.6367	75.3667	77.6367	76.1094	77.6367	75.2793	77.6367	76.1073	77.6367	75.2021	77.6367	76.0865	77.6367	75.1368	77.6367	76.0484	77.6367	75.085	77.6367	75.9948	77.6367	75.0474	77.6367	75.9281	77.6367	75.0246	77.6367	75.8509	77.6367	75.0164	77.6367	75.7662	77.6367	75.0228	77.6367	75.6766	77.6367	75.043	77.6367	75.585	77.6367	75.0765	77.6367	75.4939	77.6367	75.1224	77.6367	75.4058	77.6367	75.1796	77.6367	75.3228	77.6367	75.2469
79.1016	76.2063	79.1016	76.1132	79.1016	76.2896	79.1016	76.0138	79.1016	76.3598	79.1016	75.9118	79.1016	76.4144	79.1016	75.8111	79.1016	76.4513	79.1016	75.7151	79.1016	76.4694	79.1016	75.627	79.1016	76.4684	79.1016	75.5495	79.1016	76.4487	79.1016	75.4847	79.1016	76.4117	79.1016	75.434	79.1016	76.3591	79.1016	75.3983	79.1016	76.2934	79.1016	75.3777	79.1016	76.2171	79.1016	75.3722	79.1016	76.133	79.1016	75.3811	79.1016	76.0438	79.1016	75.4037	79.1016	75.9523	79.1016	75.4391	79.1016	75.8611	79.1016	75.4865	79.1016	75.7727	79.1016	75.5447	79.1016	75.6893	79.1016	75.6128
82.0312	76.9167	82.0312	76.8213	82.0312	77.0017	82.0312	76.7191	82.0312	77.0731	82.0312	76.614	82.0312	77.1283	82.0312	76.5098	82.0312	77.1651	82.0312	76.41	82.0312	77.1825	82.0312	76.3182	82.0312	77.1803	82.0312	76.2372	82.0312	77.1591	82.0312	76.1693	82.0312	77.1204	82.0312	76.1162	82.0312	77.0663	82.0312	76.0789	82.0312	76.9994	82.0312	76.0577	82.0312	76.9224	82.0312	76.0526	82.0312	76.8379	82.0312	76.0629	82.0312	76.7486	82.0312	76.0879	82.0312	76.6568	82.0312	76.1264	82.0312	76.565	82.0312	76.1772	82.0312	76.4753	82.0312	76.2391	82.0312	76.3898	82.0312	76.3105
84.9609	77.5856	84.9609	77.4873	84.9609	77.6729	84.9609	77.3818	84.9609	77.7457	84.9609	77.2731	84.9609	77.8013	84.9609	77.165	84.9609	77.8375	84.9609	77.0613	84.9609	77.8531	84.9609	76.9653	84.9609	77.848	84.9609	76.8798	84.9609	77.8229	84.9609	76.807	84.9609	77.7793	84.9609	76.7487	84.9609	77.7194	84.9609	76.7058	84.9609	77.6457	84.9609	76.6788	84.9609	77.561	84.9609	76.6678	84.9609	77.4684	84.9609	76.6725	84.9609	77.3708	84.9609	76.6923	84.9609	77.2712	84.9609	76.7265	84.9609	77.1724	84.9609	76.7743	84.9609	77.0771	84.9609	76.8347	84.9609	76.9877	84.9609	76.9063
87.8906	77.9996	87.8906	77.9075	87.8906	78.083	87.8906	77.8105	87.8906	78.1546	87.8906	77.7127	87.8906	78.2118	87.8906	77.6181	87.8906	78.2532	87.8906	77.5302	87.8906	78.2784	87.8906	77.4524	87.8906	78.2876	87.8906	77.3872	87.8906	78.2818	87.8906	77.3362	87.8906	78.2623	87.8906	77.3005	87.8906	78.2305	87.8906	77.2804	87.8906	78.1878	87.8906	77.2757	87.8906	78.1352	87.8906	77.2857	87.8906	78.0738	87.8906	77.3096	87.8906	78.0045	87.8906	77.3464	87.8906	77.9285	87.8906	77.3951	87.8906	77.8477	87.8906	77.4545	87.8906	77.7641	87.8906	77.5231	87.8906	77.6803	87.8906	77.5991
90.8203	78.6771	90.8203	78.5828	90.8203	78.762	90.8203	78.4829	90.8203	78.8344	90.8203	78.3815	90.8203	78.8915	90.8203	78.2828	90.8203	78.9319	90.8203	78.1908	90.8203	78.9549	90.8203	78.1092	90.8203	78.9606	90.8203	78.0408	90.8203	78.9504	90.8203	77.9881	90.8203	78.9258	90.8203	77.9525	90.8203	78.8892	90.8203	77.9344	90.8203	78.8427	90.8203	77.9338	90.8203	78.7881	90.8203	77.9494	90.8203	78.7272	90.8203	77.9799	90.8203	78.6609	90.8203	78.0234	90.8203	78.5903	90.8203	78.0777	90.8203	78.5163	90.8203	78.1409	90.8203	78.4398	90.8203	78.2108	90.8203	78.3622	90.8203	78.2852
95.2148	79.5633	95.2148	79.4701	95.2148	79.6441	95.2148	79.3681	95.2148	79.7097	95.2148	79.2615	95.2148	79.7583	95.2148	79.1546	95.2148	79.7891	95.2148	79.0521	95.2148	79.8019	95.2148	78.9585	95.2148	79.7978	95.2148	78.8775	95.2148	79.7784	95.2148	78.8123	95.2148	79.7459	95.2148	78.765	95.2148	79.7026	95.2148	78.7366	95.2148	79.6508	95.2148	78.7272	95.2148	79.5922	95.2148	78.7361	95.2148	79.528	95.2148	78.7618	95.2148	79.4589	95.2148	78.8024	95.2148	79.3855	95.2148	78.8557	95.2148	79.3084	95.2148	78.9193	95.2148	79.2287	95.2148	78.9908	95.2148	79.1479	95.2148	79.0678
98.1445	80.2044	98.1445	80.1149	98.1445	80.2813	98.1445	80.0163	98.1445	80.3428	98.1445	79.9123	98.1445	80.3868	98.1445	79.8072	98.1445	80.4121	98.1445	79.7049	98.1445	80.4184	98.1445	79.6097	98.1445	80.4066	98.1445	79.5252	98.1445	80.3787	98.1445	79.4546	98.1445	80.3373	98.1445	79.4006	98.1445	80.2858	98.1445	79.3647	98.1445	80.2271	98.1445	79.3479	98.1445	80.1638	98.1445	79.3499	98.1445	80.0976	98.1445	79.3697	98.1445	80.0293	98.1445	79.4055	98.1445	79.9589	98.1445	79.4552	98.1445	79.8862	98.1445	79.5159	98.1445	79.8113	98.1445	79.5848	98.1445	79.735	98.1445	79.6587
101.074	80.7979	101.074	80.7097	101.074	80.8716	101.074	80.6104	101.074	80.9279	101.074	80.5038	101.074	80.9648	101.074	80.3938	101.074	80.9809	101.074	80.2843	101.074	80.976	101.074	80.1794	101.074	80.9512	101.074	80.0828	101.074	80.9082	101.074	79.9978	101.074	80.85	101.074	79.9277	101.074	80.7802	101.074	79.8748	101.074	80.7026	101.074	79.841	101.074	80.621	101.074	79.8272	101.074	80.5383	101.074	79.8332	101.074	80.4569	101.074	79.8576	101.074	80.3776	101.074	79.8979	101.074	80.3007	101.074	79.9509	101.074	80.2257	101.074	80.013	101.074	80.1523	101.074	80.081
105.469	81.311	105.469	81.2035	105.469	81.4048	105.469	81.0868	105.469	81.4817	105.469	80.9665	105.469	81.5396	105.469	80.8489	105.469	81.5775	105.469	80.7402	105.469	81.5954	105.469	80.646	105.469	81.594	105.469	80.5706	105.469	81.5749	105.469	80.5162	105.469	81.5398	105.469	80.4831	105.469	81.491	105.469	80.47	105.469	81.4305	105.469	80.4741	105.469	81.3604	105.469	80.4923	105.469	81.2825	105.469	80.5216	105.469	81.1989	105.469	80.5596	105.469	81.1119	105.469	80.6051	105.469	81.0243	105.469	80.6574	105.469	80.9389	105.469	80.7169	105.469	80.8581	105.469	80.7838
108.398	81.7927	108.398	81.6831	108.398	81.8908	108.398	81.5662	108.398	81.9739	108.398	81.4469	108.398	82.0394	108.398	81.3303	108.398	82.0854	108.398	81.2222	108.398	82.1113	108.398	81.1276	108.398	82.1175	108.398	81.051	108.398	82.1056	108.398	80.9953	108.398	82.0778	108.398	80.9613	108.398	82.0368	108.398	80.9484	108.398	81.985	108.398	80.9544	108.398	81.9243	108.398	80.9763	108.398	81.8557	108.398	81.0114	108.398	81.7798	108.398	81.0577	108.398	81.6974	108.398	81.114	108.398	81.6095	108.398	81.1798	108.398	81.5182	108.398	81.2547	108.398	81.4265	108.398	81.3377
112.793	82.4015	112.793	82.2909	112.793	82.4978	112.793	82.1711	112.793	82.5759	112.793	82.0474	112.793	82.6328	112.793	81.9256	112.793	82.6671	112.793	81.8113	112.793	82.679	112.793	81.7103	112.793	82.6705	112.793	81.6276	112.793	82.6451	112.793	81.5674	112.793	82.607	112.793	81.5321	112.793	82.561	112.793	81.5226	112.793	82.5114	112.793	81.5375	112.793	82.4612	112.793	81.5742	112.793	82.4112	112.793	81.6289	112.793	82.3608	112.793	81.6974	112.793	82.3078	112.793	81.7756	112.793	82.2496	112.793	81.8596	112.793	82.1841	112.793	81.9458	112.793	82.1108	112.793	82.0306
117.188	83.0626	117.188	82.9599	117.188	83.1504	117.188	82.847	117.188	83.2193	117.188	82.7293	117.188	83.2667	117.188	82.6121	117.188	83.291	117.188	82.5009	117.188	83.2928	117.188	82.4009	117.188	83.2737	117.188	82.3168	117.188	83.2371	117.188	82.2529	117.188	83.1876	117.188	82.2125	117.188	83.1305	117.188	82.1975	117.188	83.0708	117.188	82.208	117.188	83.013	117.188	82.2422	117.188	82.9599	117.188	82.2962	117.188	82.9122	117.188	82.3648	117.188	82.8684	117.188	82.4419	117.188	82.8256	117.188	82.5213	117.188	82.7798	117.188	82.5977	117.188	82.7278	117.188	82.6671
120.117	83.4611	120.117	83.3491	120.117	83.5566	120.117	83.2258	120.117	83.6315	120.117	83.0973	120.117	83.683	120.117	82.97	120.117	83.7097	120.117	82.8504	120.117	83.712	120.117	82.7444	120.117	83.6918	120.117	82.6576	120.117	83.6524	120.117	82.5945	120.117	83.5985	120.117	82.5582	120.117	83.5355	120.117	82.5499	120.117	83.4692	120.117	82.569	120.117	83.4046	120.117	82.6124	120.117	83.3455	120.117	82.6752	120.117	83.2934	120.117	82.751	120.117	83.2476	120.117	82.8329	120.117	83.2052	120.117	82.9144	120.117	83.162	120.117	82.9901	120.117	83.1137	120.117	83.0568
124.512	84.0642	124.512	83.953	124.512	84.1572	124.512	83.8293	124.512	84.227	124.512	83.699	124.512	84.2699	124.512	83.5679	124.512	84.2843	124.512	83.4412	124.512	84.2704	124.512	83.3238	124.512	84.2305	124.512	83.2204	124.512	84.1685	124.512	83.1354	124.512	84.0899	124.512	83.0726	124.512	84.0009	124.512	83.0347	124.512	83.9081	124.512	83.0227	124.512	83.8172	124.512	83.0356	124.512	83.7329	124.512	83.0701	124.512	83.6579	124.512	83.1209	124.512	83.5924	124.512	83.182	124.512	83.5346	124.512	83.2473	124.512	83.4811	124.512	83.3116	124.512	83.4281	124.512	83.3721
128.906	84.5199	128.906	84.4315	128.906	84.5844	128.906	84.3223	128.906	84.6229	128.906	84.1962	128.906	84.6345	128.906	84.0575	128.906	84.6197	128.906	83.9109	128.906	84.5804	128.906	83.7613	128.906	84.5192	128.906	83.6142	128.906	84.4396	128.906	83.4757	128.906	84.3456	128.906	83.3526	128.906	84.2416	128.906	83.2513	128.906	84.1319	128.906	83.1775	128.906	84.0208	128.906	83.1347	128.906	83.9123	128.906	83.1234	128.906	83.8091	128.906	83.1412	128.906	83.713	128.906	83.1827	128.906	83.624	128.906	83.2412	128.906	83.5407	128.906	83.31	128.906	83.4613	128.906	83.3843
133.301	84.5943	133.301	84.4954	133.301	84.6733	133.301	84.3811	133.301	84.7297	133.301	84.2571	133.301	84.7626	133.301	84.1298	133.301	84.7725	133.301	84.0055	133.301	84.7612	133.301	83.8899	133.301	84.7314	133.301	83.7876	133.301	84.6862	133.301	83.7022	133.301	84.6291	133.301	83.6361	133.301	84.5632	133.301	83.5909	133.301	84.4915	133.301	83.5675	133.301	84.4164	133.301	83.5659	133.301	84.3395	133.301	83.585	133.301	84.2623	133.301	83.6225	133.301	84.1855	133.301	83.675	133.301	84.1093	133.301	83.7385	133.301	84.0336	133.301	83.8089	133.301	83.958	133.301	83.8828
139.16	84.841	139.16	84.7274	139.16	84.9348	139.16	84.5986	139.16	85.0059	139.16	84.461	139.16	85.0529	139.16	84.3222	139.16	85.0759	139.16	84.1905	139.16	85.0764	139.16	84.0741	139.16	85.0569	139.16	83.9799	139.16	85.0214	139.16	83.9125	139.16	84.9745	139.16	83.8742	139.16	84.9208	139.16	83.8647	139.16	84.864	139.16	83.8814	139.16	84.8064	139.16	83.9202	139.16	84.7488	139.16	83.9761	139.16	84.6906	139.16	84.044	139.16	84.6304	139.16	84.1191	139.16	84.5672	139.16	84.1977	139.16	84.5001	139.16	84.2767	139.16	84.429	139.16	84.3543
143.555	85.0533	143.555	84.926	143.555	85.1577	143.555	84.7809	143.555	85.2353	143.555	84.6248	143.555	85.284	143.555	84.466	143.555	85.3031	143.555	84.3138	143.555	85.2939	143.555	84.1775	143.555	85.26	143.555	84.0661	143.555	85.2067	143.555	83.9861	143.555	85.141	143.555	83.9414	143.555	85.0703	143.555	83.9323	143.555	85.0011	143.555	83.9561	143.555	84.9373	143.555	84.0073	143.555	84.8803	143.555	84.0789	143.555	84.8282	143.555	84.1637	143.555	84.7776	143.555	84.2551	143.555	84.7243	143.555	84.3477	143.555	84.6649	143.555	84.4374	143.555	84.5973	143.555	84.5212
147.949	85.4464	147.949	85.311	147.949	85.5554	147.949	85.1546	147.949	85.6337	147.949	84.9834	147.949	85.6779	147.949	84.8043	147.949	85.6865	147.949	84.6256	147.949	85.6601	147.949	84.4559	147.949	85.6018	147.949	84.3048	147.949	85.5172	147.949	84.181	147.949	85.4144	147.949	84.092	147.949	85.3028	147.949	84.0427	147.949	85.1923	147.949	84.034	147.949	85.0909	147.949	84.0632	147.949	85.0035	147.949	84.1242	147.949	84.9305	147.949	84.2082	147.949	84.8684	147.949	84.3061	147.949	84.8105	147.949	84.4087	147.949	84.7499	147.949	84.5086	147.949	84.6808	147.949	84.6004
153.809	85.6086	153.809	85.4909	153.809	85.6981	153.809	85.3497	153.809	85.7558	153.809	85.1907	153.809	85.7797	153.809	85.0201	153.809	85.7697	153.809	84.8449	153.809	85.7276	153.809	84.673	153.809	85.6575	153.809	84.513	153.809	85.5647	153.809	84.3734	153.809	85.4559	153.809	84.2624	153.809	85.3383	153.809	84.1863	153.809	85.2194	153.809	84.1485	153.809	85.1065	153.809	84.149	153.809	85.0054	153.809	84.1839	153.809	84.9192	153.809	84.2462	153.809	84.847	153.809	84.3269	153.809	84.7846	153.809	84.4161	153.809	84.7248	153.809	84.5053	153.809	84.6608	153.809	84.5879
159.668	85.6332	159.668	85.5406	159.668	85.6968	159.668	85.4226	159.668	85.7304	159.668	85.2844	159.668	85.7355	159.668	85.1323	159.668	85.7158	159.668	84.973	159.668	85.6764	159.668	84.8133	159.668	85.6228	159.668	84.6599	159.668	85.5598	159.668	84.5193	159.668	85.4906	159.668	84.3979	159.668	85.4167	159.668	84.3021	159.668	85.3382	159.668	84.2371	159.668	85.2545	159.668	84.2067	159.668	85.1655	159.668	84.2115	159.668	85.072	159.668	84.2487	159.668	84.9756	159.668	84.3125	159.668	84.8782	159.668	84.3948	159.668	84.7806	159.668	84.4877	159.668	84.6829	159.668	84.5849
165.527	85.4862	165.527	85.37	165.527	85.5742	165.527	85.2303	165.527	85.6317	165.527	85.0747	165.527	85.6591	165.527	84.9133	165.527	85.6586	165.527	84.7571	165.527	85.6341	165.527	84.6172	165.527	85.591	165.527	84.5029	165.527	85.536	165.527	84.4203	165.527	85.4764	165.527	84.3723	165.527	85.4186	165.527	84.3585	165.527	85.3669	165.527	84.3759	165.527	85.3227	165.527	84.4199	165.527	85.2841	165.527	84.4851	165.527	85.2468	165.527	84.5659	165.527	85.2057	165.527	84.6568	165.527	85.1561	165.527	84.7526	165.527	85.0954	165.527	84.8483	165.527	85.0228	165.527	84.9395
171.387	85.5995	171.387	85.4709	171.387	85.7058	171.387	85.3255	171.387	85.7852	171.387	85.1699	171.387	85.8347	171.387	85.0108	171.387	85.853	171.387	84.8554	171.387	85.8407	171.387	84.7102	171.387	85.8009	171.387	84.5813	171.387	85.7378	171.387	84.4739	171.387	85.6571	171.387	84.3921	171.387	85.5643	171.387	84.3388	171.387	85.4649	171.387	84.3153	171.387	85.3634	171.387	84.321	171.387	85.2633	171.387	84.3532	171.387	85.1671	171.387	84.4075	171.387	85.0756	171.387	84.4782	171.387	84.9882	171.387	84.5593	171.387	84.9032	171.387	84.6454	171.387	84.8184	171.387	84.7324
177.246	85.5482	177.246	85.4219	177.246	85.6443	177.246	85.2734	177.246	85.7043	177.246	85.112	177.246	85.7254	177.246	84.9474	177.246	85.7089	177.246	84.7888	177.246	85.6597	177.246	84.6449	177.246	85.5866	177.246	84.523	177.246	85.5012	177.246	84.4295	177.246	85.4156	177.246	84.3687	177.246	85.3407	177.246	84.3429	177.246	85.2836	177.246	84.3519	177.246	85.2462	177.246	84.3931	177.246	85.2249	177.246	84.4615	177.246	85.2112	177.246	84.5505	177.246	85.1951	177.246	84.6529	177.246	85.167	177.246	84.7614	177.246	85.1206	177.246	84.8688	177.246	85.0538	177.246	84.9683
183.105	85.6103	183.105	85.4624	183.105	85.7218	183.105	85.2878	183.105	85.7906	183.105	85.0989	183.105	85.8146	183.105	84.9098	183.105	85.7951	183.105	84.734	183.105	85.7371	183.105	84.5831	183.105	85.6481	183.105	84.4652	183.105	85.5378	183.105	84.3845	183.105	85.417	183.105	84.3422	183.105	85.2957	183.105	84.3369	183.105	85.1827	183.105	84.3651	183.105	85.0849	183.105	84.4219	183.105	85.007	183.105	84.4999	183.105	84.9512	183.105	84.5897	183.105	84.9171	183.105	84.6803	183.105	84.9006	183.105	84.761	183.105	84.8934	183.105	84.8234	183.105	84.8848	183.105	84.8639
188.965	85.4465	188.965	85.3286	188.965	85.5203	188.965	85.1733	188.965	85.5473	188.965	84.9913	188.965	85.5293	188.965	84.7969	188.965	85.4717	188.965	84.6063	188.965	85.3835	188.965	84.4359	188.965	85.2762	188.965	84.2993	188.965	85.1631	188.965	84.2049	188.965	85.0577	188.965	84.1545	188.965	84.9717	188.965	84.1434	188.965	84.912	188.965	84.1634	188.965	84.8785	188.965	84.2057	188.965	84.8636	188.965	84.2626	188.965	84.8549	188.965	84.3287	188.965	84.8399	188.965	84.4004	188.965	84.8098	188.965	84.4756	188.965	84.7622	188.965	84.5523	188.965	84.6999	188.965	84.6283
196.289	85.386	196.289	85.275	196.289	85.4589	196.289	85.1313	196.289	85.4905	196.289	84.9615	196.289	85.4804	196.289	84.7733	196.289	85.4315	196.289	84.5758	196.289	85.3496	196.289	84.3803	196.289	85.2427	196.289	84.2	196.289	85.1205	196.289	84.0497	196.289	84.9939	196.289	83.9426	196.289	84.8742	196.289	83.8875	196.289	84.7723	196.289	83.8862	196.289	84.6977	196.289	83.9333	196.289	84.6555	196.289	84.0183	196.289	84.6435	196.289	84.1283	196.289	84.6517	196.289	84.2507	196.289	84.6635	196.289	84.3732	196.289	84.6618	196.289	84.4844	196.289	84.6337	196.289	84.5737
203.613	85.3399	203.613	85.2064	203.613	85.4348	203.613	85.0395	203.613	85.4885	203.613	84.8472	203.613	85.5003	203.613	84.6405	203.613	85.4705	203.613	84.4318	203.613	85.4004	203.613	84.2348	203.613	85.2937	203.613	84.0628	203.613	85.1574	203.613	83.9278	203.613	85.0026	203.613	83.8393	203.613	84.8443	203.613	83.8024	203.613	84.699	203.613	83.8166	203.613	84.5817	203.613	83.8751	203.613	84.502	203.613	83.9663	203.613	84.4613	203.613	84.0758	203.613	84.4517	203.613	84.1886	203.613	84.459	203.613	84.2916	203.613	84.467	203.613	84.3748	203.613	84.4611	203.613	84.4317
210.938	85.2681	210.938	85.1503	210.938	85.3406	210.938	84.993	210.938	85.3642	210.938	84.8036	210.938	85.3382	210.938	84.5916	210.938	85.2659	210.938	84.3681	210.938	85.1544	210.938	84.1461	210.938	85.0149	210.938	83.9404	210.938	84.8601	210.938	83.7661	210.938	84.7022	210.938	83.6372	210.938	84.5515	210.938	83.5635	210.938	84.4166	210.938	83.548	210.938	84.3051	210.938	83.5855	210.938	84.2238	210.938	83.6642	210.938	84.1762	210.938	83.7681	210.938	84.1594	210.938	83.8804	210.938	84.1625	210.938	83.9859	210.938	84.1693	210.938	84.0725	210.938	84.1631	210.938	84.1324
218.262	84.9924	218.262	84.8964	218.262	85.0516	218.262	84.7719	218.262	85.0683	218.262	84.6267	218.262	85.0406	218.262	84.4668	218.262	84.9723	218.262	84.2961	218.262	84.8719	218.262	84.1172	218.262	84.7512	218.262	83.9347	218.262	84.6226	218.262	83.7566	218.262	84.4965	218.262	83.5965	218.262	84.3802	218.262	83.4715	218.262	84.278	218.262	83.3984	218.262	84.1932	218.262	83.3873	218.262	84.1293	218.262	83.4371	218.262	84.0887	218.262	83.5352	218.262	84.0705	218.262	83.6608	218.262	84.0666	218.262	83.791	218.262	84.0626	218.262	83.9056	218.262	84.0416	218.262	83.9908
225.586	84.7463	225.586	84.6407	225.586	84.8045	225.586	84.4987	225.586	84.8101	225.586	84.3353	225.586	84.7647	225.586	84.1669	225.586	84.6761	225.586	84.0077	225.586	84.5578	225.586	83.8678	225.586	84.4265	225.586	83.7517	225.586	84.3002	225.586	83.6596	225.586	84.1938	225.586	83.5904	225.586	84.1161	225.586	83.5443	225.586	84.0674	225.586	83.5246	225.586	84.0412	225.586	83.5358	225.586	84.0283	225.586	83.58	225.586	84.0219	225.586	83.6535	225.586	84.0194	225.586	83.7455	225.586	84.0197	225.586	83.8399	225.586	84.0188	225.586	83.9209	225.586	84.0082	225.586	83.9776
232.91	84.5855	232.91	84.4619	232.91	84.6572	232.91	84.2944	232.91	84.6743	232.91	84.0965	232.91	84.6388	232.91	83.8859	232.91	84.5564	232.91	83.6827	232.91	84.4357	232.91	83.5062	232.91	84.2884	232.91	83.3716	232.91	84.1296	232.91	83.2872	232.91	83.9782	232.91	83.2541	232.91	83.8543	232.91	83.2677	232.91	83.7746	232.91	83.3207	232.91	83.7467	232.91	83.4049	232.91	83.766	232.91	83.5112	232.91	83.8178	232.91	83.6298	232.91	83.8834	232.91	83.749	232.91	83.9454	232.91	83.8563	232.91	83.9899	232.91	83.9397	232.91	84.0073	232.91	83.9911
241.699	84.4929	241.699	84.3035	241.699	84.6312	241.699	84.0758	241.699	84.71	241.699	83.8275	241.699	84.7245	241.699	83.5804	241.699	84.6739	241.699	83.3575	241.699	84.5616	241.699	83.1792	241.699	84.397	241.699	83.0577	241.699	84.1956	241.699	82.9958	241.699	83.9798	241.699	82.9873	241.699	83.7769	241.699	83.0214	241.699	83.6143	241.699	83.0866	241.699	83.5119	241.699	83.1733	241.699	83.4742	241.699	83.2725	241.699	83.4885	241.699	83.3752	241.699	83.5317	241.699	83.4711	241.699	83.5809	241.699	83.5506	241.699	83.6198	241.699	83.6067	241.699	83.6398	241.699	83.6363
250.488	84.6028	250.488	84.4365	250.488	84.7203	250.488	84.2337	250.488	84.7783	250.488	84.0052	250.488	84.7712	250.488	83.7586	250.488	84.6999	250.488	83.5	250.488	84.5708	250.488	83.237	250.488	84.3937	250.488	82.9829	250.488	84.1797	250.488	82.7568	250.488	83.9404	250.488	82.5809	250.488	83.689	250.488	82.4731	250.488	83.4437	250.488	82.4403	250.488	83.2301	250.488	82.4768	250.488	83.078	250.488	82.5672	250.488	83.0084	250.488	82.6922	250.488	83.019	250.488	82.8326	250.488	83.0794	250.488	82.9694	250.488	83.145	250.488	83.0837	250.488	83.1776	250.488	83.1573
259.277	84.5737	259.277	84.4017	259.277	84.6853	259.277	84.1778	259.277	84.7331	259.277	83.9163	259.277	84.7187	259.277	83.6353	259.277	84.6474	259.277	83.3545	259.277	84.5272	259.277	83.0922	259.277	84.3683	259.277	82.8627	259.277	84.1822	259.277	82.6757	259.277	83.9803	259.277	82.5376	259.277	83.7729	259.277	82.4534	259.277	83.5692	259.277	82.4265	259.277	83.3781	259.277	82.4563	259.277	83.2101	259.277	82.5349	259.277	83.0774	259.277	82.6452	259.277	82.9906	259.277	82.7641	259.277	82.9523	259.277	82.8674	259.277	82.9517	259.277	82.9375	259.277	82.9657	259.277	82.9678
268.066	84.1571	268.066	83.9682	268.066	84.2659	268.066	83.7041	268.066	84.2964	268.066	83.3786	268.066	84.2558	268.066	83.0174	268.066	84.1571	268.066	82.657	268.066	84.0182	268.066	82.3402	268.066	83.8612	268.066	82.1044	268.066	83.7075	268.066	81.9674	268.066	83.5729	268.066	81.9205	268.066	83.4632	268.066	81.9353	268.066	83.3733	268.066	81.9793	268.066	83.2901	268.066	82.0295	268.066	83.1986	268.066	82.078	268.066	83.0879	268.066	82.1271	268.066	82.9559	268.066	82.1824	268.066	82.8103	268.066	82.2479	268.066	82.6647	268.066	82.3259	268.066	82.5322	268.066	82.4194
276.855	84.1955	276.855	84.0361	276.855	84.2894	276.855	83.8216	276.855	84.3089	276.855	83.5618	276.855	84.2495	276.855	83.2646	276.855	84.1125	276.855	82.9383	276.855	83.906	276.855	82.5964	276.855	83.6445	276.855	82.2631	276.855	83.3509	276.855	81.9753	276.855	83.0582	276.855	81.7751	276.855	82.8092	276.855	81.6919	276.855	82.6488	276.855	81.7265	276.855	82.6058	276.855	81.8503	276.855	82.674	276.855	82.0233	276.855	82.8109	276.855	82.2136	276.855	82.9562	276.855	82.4048	276.855	83.0574	276.855	82.5913	276.855	83.0855	276.855	82.7681	276.855	83.0362	276.855	82.9231
287.109	83.794	287.109	83.6321	287.109	83.8809	287.109	83.4093	287.109	83.8884	287.109	83.1474	287.109	83.8227	287.109	82.8721	287.109	83.6993	287.109	82.6084	287.109	83.5396	287.109	82.3747	287.109	83.3661	287.109	82.1808	287.109	83.1968	287.109	82.0287	287.109	83.0408	287.109	81.9191	287.109	82.8975	287.109	81.8577	287.109	82.7631	287.109	81.8561	287.109	82.6422	287.109	81.9242	287.109	82.5551	287.109	82.0612	287.109	82.5299	287.109	82.2498	287.109	82.5801	287.109	82.4596	287.109	82.6865	287.109	82.6555	287.109	82.8027	287.109	82.8048	287.109	82.8791	287.109	82.8829
297.363	83.9024	297.363	83.7644	297.363	83.9677	297.363	83.5564	297.363	83.9613	297.363	83.2857	297.363	83.887	297.363	82.9666	297.363	83.751	297.363	82.6222	297.363	83.5619	297.363	82.2847	297.363	83.3314	297.363	81.9923	297.363	83.0765	297.363	81.7794	297.363	82.8206	297.363	81.665	297.363	82.5931	297.363	81.6475	297.363	82.425	297.363	81.7098	297.363	82.3401	297.363	81.8303	297.363	82.3437	297.363	81.9896	297.363	82.4181	297.363	82.1704	297.363	82.5284	297.363	82.354	297.363	82.6375	297.363	82.5197	297.363	82.7166	297.363	82.6484	297.363	82.749	297.363	82.7266
307.617	83.631	307.617	83.3985	307.617	83.8188	307.617	83.1473	307.617	83.9371	307.617	82.8977	307.617	83.9687	307.617	82.658	307.617	83.9077	307.617	82.4242	307.617	83.7615	307.617	82.187	307.617	83.5514	307.617	81.9431	307.617	83.3089	307.617	81.7037	307.617	83.0659	307.617	81.4968	307.617	82.8424	307.617	81.3581	307.617	82.6395	307.617	81.3143	307.617	82.4489	307.617	81.3687	307.617	82.2719	307.617	81.5005	307.617	82.1331	307.617	81.6766	307.617	82.0672	307.617	81.8636	307.617	82.0846	307.617	82.0326	307.617	82.1524	307.617	82.1585	307.617	82.2133	307.617	82.2211
319.336	83.8626	319.336	83.6305	319.336	83.9898	319.336	83.3053	319.336	84.0121	319.336	82.9105	319.336	83.9403	319.336	82.4803	319.336	83.7916	319.336	82.0564	319.336	83.5837	319.336	81.6825	319.336	83.3295	319.336	81.3936	319.336	83.0376	319.336	81.2075	319.336	82.7196	319.336	81.1216	319.336	82.402	319.336	81.1196	319.336	82.1297	319.336	81.1823	319.336	81.9504	319.336	81.2936	319.336	81.8842	319.336	81.4386	319.336	81.9079	319.336	81.6008	319.336	81.9728	319.336	81.7606	319.336	82.0364	319.336	81.8987	319.336	82.0769	319.336	82.0016	319.336	82.0873	319.336	82.0638
329.59	83.3264	329.59	83.1123	329.59	83.4461	329.59	82.8166	329.59	83.4712	329.59	82.4635	329.59	83.4102	329.59	82.0826	329.59	83.2759	329.59	81.7021	329.59	83.0831	329.59	81.3432	329.59	82.8494	329.59	81.0223	329.59	82.595	329.59	80.7572	329.59	82.3392	329.59	80.5715	329.59	82.0963	329.59	80.489	329.59	81.8769	329.59	80.5195	329.59	81.6954	329.59	80.6489	329.59	81.5724	329.59	80.8435	329.59	81.5267	329.59	81.065	329.59	81.5573	329.59	81.2825	329.59	81.6344	329.59	81.4743	329.59	81.7117	329.59	81.6245	329.59	81.7472	329.59	81.7189
341.309	83.4987	341.309	83.2864	341.309	83.6207	341.309	82.992	341.309	83.6482	341.309	82.6312	341.309	83.5804	341.309	82.2314	341.309	83.4229	341.309	81.8292	341.309	83.1912	341.309	81.4611	341.309	82.9118	341.309	81.1493	341.309	82.6176	341.309	80.8946	341.309	82.3414	341.309	80.686	341.309	82.11	341.309	80.5235	341.309	81.9404	341.309	80.4322	341.309	81.8388	341.309	80.4519	341.309	81.8008	341.309	80.6054	341.309	81.8138	341.309	80.8725	341.309	81.8606	341.309	81.1954	341.309	81.9208	341.309	81.5065	341.309	81.9692	341.309	81.7534	341.309	81.9754	341.309	81.9099
353.027	83.4641	353.027	83.2656	353.027	83.5591	353.027	82.9803	353.027	83.542	353.027	82.6261	353.027	83.4183	353.027	82.2182	353.027	83.2084	353.027	81.7734	353.027	82.9415	353.027	81.3171	353.027	82.6489	353.027	80.8876	353.027	82.3583	353.027	80.5306	353.027	82.0878	353.027	80.2816	353.027	81.8427	353.027	80.1501	353.027	81.621	353.027	80.1202	353.027	81.4273	353.027	80.1689	353.027	81.284	353.027	80.2813	353.027	81.2206	353.027	80.4503	353.027	81.2428	353.027	80.6641	353.027	81.3144	353.027	80.8977	353.027	81.3742	353.027	81.1159	353.027	81.371	353.027	81.2825
366.211	83.3801	366.211	83.1841	366.211	83.478	366.211	82.9061	366.211	83.4693	366.211	82.5681	366.211	83.35	366.211	82.192	366.211	83.1171	366.211	81.7949	366.211	82.7732	366.211	81.3909	366.211	82.3389	366.211	80.9998	366.211	81.8673	366.211	80.6569	366.211	81.4429	366.211	80.4105	366.211	81.1539	366.211	80.301	366.211	81.0422	366.211	80.3345	366.211	81.0782	366.211	80.4784	366.211	81.1908	366.211	80.6836	366.211	81.3198	366.211	80.9097	366.211	81.4397	366.211	81.1319	366.211	81.5443	366.211	81.3345	366.211	81.622	366.211	81.5005	366.211	81.6503	366.211	81.6105
379.395	83.5417	379.395	83.2516	379.395	83.7227	379.395	82.8761	379.395	83.7825	379.395	82.4509	379.395	83.7172	379.395	82.021	379.395	83.5304	379.395	81.6288	379.395	83.2345	379.395	81.2984	379.395	82.8503	379.395	81.0258	379.395	82.4037	379.395	80.7881	379.395	81.9219	379.395	80.5699	379.395	81.4368	379.395	80.3907	379.395	80.9985	379.395	80.3061	379.395	80.6836	379.395	80.371	379.395	80.5729	379.395	80.5892	379.395	80.6911	379.395	80.9027	379.395	80.9717	379.395	81.2293	379.395	81.2972	379.395	81.5036	379.395	81.5672	379.395	81.6891	379.395	81.7288	379.395	81.7678
392.578	83.4732	392.578	83.2053	392.578	83.6267	392.578	82.8407	392.578	83.6542	392.578	82.4029	392.578	83.5512	392.578	81.9226	392.578	83.3228	392.578	81.4377	392.578	82.983	392.578	80.9886	392.578	82.5517	392.578	80.6058	392.578	82.0559	392.578	80.2977	392.578	81.5377	392.578	80.0535	392.578	81.0627	392.578	79.8632	392.578	80.7077	392.578	79.7391	392.578	80.519	392.578	79.7152	392.578	80.4816	392.578	79.8214	392.578	80.5464	392.578	80.0531	392.578	80.6777	392.578	80.3661	392.578	80.8537	392.578	80.6939	392.578	81.0314	392.578	80.9664	392.578	81.1416	392.578	81.1254
405.762	83.2223	405.762	83.0198	405.762	83.3066	405.762	82.7146	405.762	83.2649	405.762	82.3239	405.762	83.1046	405.762	81.8642	405.762	82.8521	405.762	81.356	405.762	82.5495	405.762	80.8348	405.762	82.2404	405.762	80.3604	405.762	81.9509	405.762	80.0051	405.762	81.677	405.762	79.8153	405.762	81.3967	405.762	79.7801	405.762	81.1009	405.762	79.8497	405.762	80.8179	405.762	79.9818	405.762	80.6042	405.762	80.1629	405.762	80.5058	405.762	80.3923	405.762	80.5319	405.762	80.6525	405.762	80.6597	405.762	80.8965	405.762	80.8434	405.762	81.062	405.762	81.0152	405.762	81.1029
420.41	83.5579	420.41	83.2799	420.41	83.6722	420.41	82.8789	420.41	83.6113	420.41	82.4152	420.41	83.3956	420.41	81.9522	420.41	83.0707	420.41	81.5378	420.41	82.6921	420.41	81.1906	420.41	82.3066	420.41	80.9029	420.41	81.9391	420.41	80.6572	420.41	81.5857	420.41	80.4468	420.41	81.2204	420.41	80.2848	420.41	80.8271	420.41	80.198	420.41	80.453	420.41	80.209	420.41	80.2281	420.41	80.3186	420.41	80.2712	420.41	80.5016	420.41	80.5452	420.41	80.7164	420.41	80.8769	420.41	80.9211	420.41	81.1157	420.41	81.0859	420.41	81.213	420.41	81.1911
435.059	83.5029	435.059	83.2925	435.059	83.5713	435.059	82.9487	435.059	83.5062	435.059	82.4971	435.059	83.3225	435.059	81.9735	435.059	83.0312	435.059	81.4164	435.059	82.6398	435.059	80.8645	435.059	82.1705	435.059	80.3647	435.059	81.6784	435.059	79.9791	435.059	81.2394	435.059	79.7733	435.059	80.901	435.059	79.7758	435.059	80.6398	435.059	79.9515	435.059	80.3943	435.059	80.2228	435.059	80.1594	435.059	80.5143	435.059	80.0446	435.059	80.7786	435.059	80.1846	435.059	80.9987	435.059	80.553	435.059	81.1738	435.059	80.9607	435.059	81.2981	435.059	81.239	435.059	81.3388
451.172	83.8507	451.172	83.5997	451.172	83.9688	451.172	83.2257	451.172	83.9416	451.172	82.7405	451.172	83.757	451.172	82.1614	451.172	83.4127	451.172	81.5078	451.172	82.925	451.172	80.7942	451.172	82.3273	451.172	80.0281	451.172	81.6647	451.172	79.2303	451.172	81.0061	451.172	78.4777	451.172	80.4644	451.172	77.9323	451.172	80.1515	451.172	77.7805	451.172	80.0483	451.172	78.0713	451.172	79.9815	451.172	78.6574	451.172	79.8029	451.172	79.3321	451.172	79.5653	451.172	79.9461	451.172	79.5116	451.172	80.405	451.172	79.7938	451.172	80.6337	451.172	80.2438	451.172	80.5757
465.82	83.6899	465.82	83.4231	465.82	83.7863	465.82	83	465.82	83.7112	465.82	82.4419	465.82	83.4821	465.82	81.7759	465.82	83.1317	465.82	81.0375	465.82	82.6954	465.82	80.2764	465.82	82.1996	465.82	79.5596	465.82	81.6594	465.82	78.9647	465.82	81.0879	465.82	78.5627	465.82	80.5199	465.82	78.4018	465.82	80.0485	465.82	78.4962	465.82	79.8203	465.82	78.8154	465.82	79.9135	465.82	79.2835	465.82	80.2149	465.82	79.801	465.82	80.5187	465.82	80.2734	465.82	80.7107	465.82	80.6299	465.82	80.8082	465.82	80.8346	465.82	80.8694	465.82	80.8968
483.398	83.9193	483.398	83.748	483.398	83.9188	483.398	83.3966	483.398	83.7641	483.398	82.8665	483.398	83.4854	483.398	82.1734	483.398	83.1258	483.398	81.3551	483.398	82.7315	483.398	80.476	483.398	82.3311	483.398	79.6176	483.398	81.9205	483.398	78.8504	483.398	81.4661	483.398	78.2175	483.398	80.9301	483.398	77.7647	483.398	80.3195	483.398	77.5845	483.398	79.7505	483.398	77.7669	483.398	79.4485	483.398	78.2687	483.398	79.5614	483.398	78.9087	483.398	79.9575	483.398	79.5071	483.398	80.3583	483.398	79.9744	483.398	80.5867	483.398	80.3016	483.398	80.6212	483.398	80.514
499.512	83.9061	499.512	83.6482	499.512	84.0213	499.512	83.2632	499.512	83.9848	499.512	82.7649	499.512	83.8022	499.512	82.1644	499.512	83.4922	499.512	81.4732	499.512	83.0716	499.512	80.71	499.512	82.5472	499.512	79.9085	499.512	81.9302	499.512	79.1214	499.512	81.2607	499.512	78.4215	499.512	80.6112	499.512	77.8989	499.512	80.0576	499.512	77.6489	499.512	79.6432	499.512	77.7342	499.512	79.3893	499.512	78.1398	499.512	79.3525	499.512	78.7711	499.512	79.612	499.512	79.4983	499.512	80.1237	499.512	80.1932	499.512	80.6687	499.512	80.7397	499.512	81.0123	499.512	81.0361
517.09	84.1046	517.09	83.9488	517.09	84.0719	517.09	83.6066	517.09	83.8743	517.09	83.1041	517.09	83.5524	517.09	82.4882	517.09	83.1372	517.09	81.8166	517.09	82.6327	517.09	81.1366	517.09	82.0419	517.09	80.462	517.09	81.4155	517.09	79.7728	517.09	80.8502	517.09	79.0529	517.09	80.4145	517.09	78.3534	517.09	80.0784	517.09	77.8373	517.09	79.7492	517.09	77.7171	517.09	79.3891	517.09	78.0624	517.09	79.1059	517.09	78.7168	517.09	79.1028	517.09	79.4488	517.09	79.4593	517.09	80.0823	517.09	79.9983	517.09	80.5029	517.09	80.4493	517.09	80.6351
536.133	83.8766	536.133	83.606	536.133	83.9125	536.133	83.1205	536.133	83.7293	536.133	82.4742	536.133	83.3642	536.133	81.7464	536.133	82.8537	536.133	81.0273	536.133	82.2291	536.133	80.3942	536.133	81.5398	536.133	79.8733	536.133	80.8729	536.133	79.4151	536.133	80.335	536.133	78.9313	536.133	79.9933	536.133	78.3891	536.133	79.8196	536.133	77.8957	536.133	79.7133	536.133	77.6812	536.133	79.6097	536.133	77.9032	536.133	79.5554	536.133	78.4657	536.133	79.6447	536.133	79.1314	536.133	79.8806	536.133	79.715	536.133	80.1496	536.133	80.1243	536.133	80.3242	536.133	80.3267
555.176	84.1148	555.176	83.9168	555.176	84.0888	555.176	83.4848	555.176	83.8754	555.176	82.8438	555.176	83.5216	555.176	82.0559	555.176	83.0637	555.176	81.2173	555.176	82.5172	555.176	80.4351	555.176	81.8798	555.176	79.7706	555.176	81.1427	555.176	79.1901	555.176	80.3109	555.176	78.6039	555.176	79.4427	555.176	77.9882	555.176	78.6874	555.176	77.4866	555.176	78.2477	555.176	77.3663	555.176	78.2312	555.176	77.7501	555.176	78.5573	555.176	78.4467	555.176	79.0492	555.176	79.167	555.176	79.551	555.176	79.7383	555.176	79.9571	555.176	80.1039	555.176	80.2034	555.176	80.257
574.219	84.1359	574.219	83.8667	574.219	84.2631	574.219	83.4602	574.219	84.2333	574.219	82.9182	574.219	84.0182	574.219	82.2423	574.219	83.5951	574.219	81.4392	574.219	82.9783	574.219	80.5537	574.219	82.2355	574.219	79.7114	574.219	81.4628	574.219	79.0786	574.219	80.7347	574.219	78.6971	574.219	80.0733	574.219	78.4111	574.219	79.4485	574.219	78.0408	574.219	78.8133	574.219	77.624	574.219	78.209	574.219	77.4932	574.219	77.8833	574.219	77.9362	574.219	78.1321	574.219	78.77	574.219	78.8613	574.219	79.5937	574.219	79.6521	574.219	80.1565	574.219	80.1912	574.219	80.3644
594.727	84.1093	594.727	83.8624	594.727	84.1121	594.727	83.3725	594.727	83.9162	594.727	82.6859	594.727	83.5701	594.727	81.8606	594.727	83.0819	594.727	80.9345	594.727	82.4384	594.727	79.9322	594.727	81.6662	594.727	78.9186	594.727	80.8627	594.727	78.05	594.727	80.179	594.727	77.5178	594.727	79.7487	594.727	77.3577	594.727	79.5546	594.727	77.3933	594.727	79.3856	594.727	77.4695	594.727	79.0061	594.727	77.6356	594.727	78.4049	594.727	78.0465	594.727	77.9842	594.727	78.7137	594.727	78.2757	594.727	79.4403	594.727	79.1091	594.727	79.9823	594.727	79.8516	594.727	80.155
615.234	84.457	615.234	84.2105	615.234	84.4708	615.234	83.7095	615.234	84.2953	615.234	82.9865	615.234	83.9564	615.234	82.1209	615.234	83.458	615.234	81.1905	615.234	82.8032	615.234	80.2291	615.234	82.0065	615.234	79.2562	615.234	81.0995	615.234	78.3733	615.234	80.1387	615.234	77.775	615.234	79.2261	615.234	77.5484	615.234	78.5473	615.234	77.5364	615.234	78.3217	615.234	77.5581	615.234	78.5532	615.234	77.6442	615.234	78.9584	615.234	77.9592	615.234	79.2694	615.234	78.5313	615.234	79.4354	615.234	79.165	615.234	79.5618	615.234	79.6216	615.234	79.7126	615.234	79.7863
637.207	84.2524	637.207	84.0275	637.207	84.3439	637.207	83.6381	637.207	84.3049	637.207	83.0511	637.207	84.1011	637.207	82.2594	637.207	83.688	637.207	81.3145	637.207	83.0541	637.207	80.3477	637.207	82.2521	637.207	79.5153	637.207	81.3908	637.207	78.8632	637.207	80.5634	637.207	78.2777	637.207	79.7729	637.207	77.6368	637.207	78.9675	637.207	76.9947	637.207	78.1657	637.207	76.6033	637.207	77.5483	637.207	76.7221	637.207	77.3977	637.207	77.3519	637.207	77.7983	637.207	78.2131	637.207	78.4757	637.207	78.9836	637.207	79.0935	637.207	79.4715	637.207	79.4924	637.207	79.6303
659.18	84.2113	659.18	84.0035	659.18	84.2381	659.18	83.6111	659.18	84.0923	659.18	83.0335	659.18	83.7848	659.18	82.2805	659.18	83.3149	659.18	81.3745	659.18	82.6816	659.18	80.3429	659.18	81.9398	659.18	79.2393	659.18	81.2055	659.18	78.2117	659.18	80.5434	659.18	77.5178	659.18	79.8939	659.18	77.3222	659.18	79.2375	659.18	77.471	659.18	78.7546	659.18	77.6695	659.18	78.5494	659.18	77.8059	659.18	78.4037	659.18	78.0082	659.18	78.2356	659.18	78.4548	659.18	78.4142	659.18	79.1274	659.18	79.1067	659.18	79.7679	659.18	79.813	659.18	80.0602
682.617	84.5228	682.617	84.2244	682.617	84.5863	682.617	83.6824	682.617	84.4654	682.617	82.9284	682.617	84.2141	682.617	82.023	682.617	83.8235	682.617	81.0399	682.617	83.2305	682.617	80.0509	682.617	82.4229	682.617	79.1406	682.617	81.5374	682.617	78.4166	682.617	80.849	682.617	77.9369	682.617	80.4762	682.617	77.6425	682.617	80.0698	682.617	77.4555	682.617	79.2579	682.617	77.4416	682.617	78.3369	682.617	77.7446	682.617	78.214	682.617	78.3301	682.617	78.8876	682.617	78.9728	682.617	79.4565	682.617	79.4619	682.617	79.6285	682.617	79.7024	682.617	79.6594	682.617	79.7208
707.52	84.3742	707.52	84.1918	707.52	84.4577	707.52	83.8166	707.52	84.4493	707.52	83.175	707.52	84.2529	707.52	82.3045	707.52	83.7821	707.52	81.3857	707.52	83.0659	707.52	80.6467	707.52	82.2222	707.52	80.1359	707.52	81.3306	707.52	79.6681	707.52	80.3908	707.52	79.0177	707.52	79.4591	707.52	78.1031	707.52	78.7131	707.52	77.0984	707.52	78.1538	707.52	76.3991	707.52	77.4618	707.52	76.338	707.52	76.6174	707.52	76.8745	707.52	76.4633	707.52	77.6866	707.52	77.3691	707.52	78.4486	707.52	78.3663	707.52	78.9426	707.52	78.9224	707.52	79.0945
732.422	83.9889	732.422	83.7958	732.422	83.979	732.422	83.3152	732.422	83.8636	732.422	82.5691	732.422	83.6338	732.422	81.722	732.422	83.1729	732.422	80.9781	732.422	82.4423	732.422	80.3615	732.422	81.612	732.422	79.6813	732.422	80.9035	732.422	78.8298	732.422	80.3506	732.422	78.0576	732.422	79.8264	732.422	77.7131	732.422	79.1715	732.422	77.6863	732.422	78.4431	732.422	77.6176	732.422	78.0637	732.422	77.4858	732.422	78.11	732.422	77.59	732.422	77.9856	732.422	78.0441	732.422	77.5966	732.422	78.6305	732.422	77.7772	732.422	79.0735	732.422	78.5808	732.422	79.1153
757.324	84.1928	757.324	83.8598	757.324	84.3685	757.324	83.3636	757.324	84.3416	757.324	82.6737	757.324	84.0555	757.324	81.8024	757.324	83.5241	757.324	80.8639	757.324	82.8583	757.324	80.0586	757.324	82.1542	757.324	79.5029	757.324	81.4078	757.324	79.0949	757.324	80.6376	757.324	78.7233	757.324	79.9562	757.324	78.4333	757.324	79.3474	757.324	78.1852	757.324	78.5317	757.324	77.76	757.324	77.3835	757.324	77.1647	757.324	76.7137	757.324	76.856	757.324	77.5275	757.324	77.2676	757.324	78.7973	757.324	78.1425	757.324	79.4738	757.324	78.9161	757.324	79.566	757.324	79.3658
785.156	84.9894	785.156	84.4919	785.156	85.2663	785.156	83.9489	785.156	85.2077	785.156	83.4844	785.156	84.7549	785.156	83.0421	785.156	83.9462	785.156	82.4702	785.156	82.9918	785.156	81.7334	785.156	82.1356	785.156	80.9958	785.156	81.3551	785.156	80.3761	785.156	80.4173	785.156	79.6915	785.156	79.3654	785.156	78.8325	785.156	78.8424	785.156	78.1709	785.156	79.1936	785.156	78.1138	785.156	79.5296	785.156	78.4538	785.156	79.0881	785.156	78.7235	785.156	78.2158	785.156	78.767	785.156	77.9773	785.156	78.7138	785.156	78.3873	785.156	78.709	785.156	78.7035	785.156	78.7539
811.523	85.3404	811.523	84.9209	811.523	85.4847	811.523	84.3082	811.523	85.3435	811.523	83.6503	811.523	84.9626	811.523	83.0791	811.523	84.3972	811.523	82.5723	811.523	83.6579	811.523	81.9505	811.523	82.7598	811.523	81.0457	811.523	81.8141	811.523	79.8608	811.523	80.9194	811.523	78.5688	811.523	79.9765	811.523	77.4214	811.523	78.8971	811.523	76.7889	811.523	78.0759	811.523	76.9447	811.523	78.0283	811.523	77.6365	811.523	78.4448	811.523	78.405	811.523	78.7628	811.523	79.0343	811.523	78.8352	811.523	79.4516	811.523	78.8482	811.523	79.5737	811.523	79.0445	811.523	79.3801
840.82	84.5665	840.82	84.1185	840.82	84.9458	840.82	83.6491	840.82	85.1479	840.82	83.2958	840.82	84.9358	840.82	83.1352	840.82	84.2478	840.82	82.9303	840.82	83.4059	840.82	82.2987	840.82	82.6549	840.82	81.1702	840.82	81.7631	840.82	79.9372	840.82	80.6046	840.82	79.0202	840.82	79.5447	840.82	78.3717	840.82	78.9427	840.82	77.7449	840.82	78.4487	840.82	77.4009	840.82	77.3754	840.82	77.7156	840.82	76.0086	840.82	78.2994	840.82	76.2999	840.82	78.7412	840.82	77.9168	840.82	79.0519	840.82	79.0744	840.82	79.3497	840.82	79.5469	840.82	79.575
870.117	84.8049	870.117	84.4818	870.117	84.9177	870.117	83.9907	870.117	84.7552	870.117	83.4381	870.117	84.3306	870.117	82.9939	870.117	83.8589	870.117	82.6818	870.117	83.4044	870.117	82.2519	870.117	82.6055	870.117	81.4215	870.117	81.2441	870.117	80.2639	870.117	79.6767	870.117	79.2229	870.117	78.4907	870.117	78.4828	870.117	77.8628	870.117	77.67	870.117	77.6416	870.117	76.6709	870.117	77.7394	870.117	76.2334	870.117	77.7599	870.117	76.9749	870.117	77.2184	870.117	78.2129	870.117	76.9268	870.117	79.2232	870.117	78.1756	870.117	79.8651	870.117	79.5715	870.117	80.0777
900.879	84.9325	900.879	84.4896	900.879	85.0477	900.879	83.8098	900.879	84.8882	900.879	83.1457	900.879	84.5164	900.879	82.6836	900.879	83.9107	900.879	82.3104	900.879	83.0213	900.879	81.7558	900.879	81.9567	900.879	80.8571	900.879	81.0123	900.879	79.6369	900.879	80.2624	900.879	78.3493	900.879	79.3581	900.879	77.4455	900.879	78.292	900.879	77.1896	900.879	77.6975	900.879	77.3562	900.879	77.1951	900.879	77.5451	900.879	75.9637	900.879	77.6192	900.879	75.4144	900.879	77.7467	900.879	76.936	900.879	78.2226	900.879	78.4593	900.879	78.9924	900.879	79.3047	900.879	79.487
933.105	84.8118	933.105	84.54	933.105	84.6498	933.105	83.8606	933.105	84.301	933.105	83.1012	933.105	83.8831	933.105	82.5429	933.105	83.298	933.105	82.0938	933.105	82.5815	933.105	81.4473	933.105	81.7839	933.105	80.406	933.105	80.7488	933.105	79.0383	933.105	79.6473	933.105	77.9303	933.105	78.9939	933.105	77.7225	933.105	78.6491	933.105	77.8515	933.105	78.1896	933.105	77.3647	933.105	77.9122	933.105	76.3379	933.105	78.1044	933.105	75.9274	933.105	78.2234	933.105	77.0597	933.105	78.0711	933.105	78.7819	933.105	78.2859	933.105	79.9101	933.105	79.1895	933.105	79.9958
965.332	84.8872	965.332	84.632	965.332	84.9228	965.332	84.1803	965.332	84.6187	965.332	83.6125	965.332	83.842	965.332	83.0233	965.332	82.919	965.332	82.2941	965.332	82.2812	965.332	81.0753	965.332	81.5234	965.332	79.5219	965.332	80.2258	965.332	78.4822	965.332	78.8147	965.332	77.9749	965.332	77.6633	965.332	76.9667	965.332	76.8433	965.332	75.6024	965.332	76.4457	965.332	75.8776	965.332	75.7311	965.332	77.3454	965.332	74.4294	965.332	78.214	965.332	74.4701	965.332	78.2099	965.332	76.7874	965.332	77.885	965.332	78.427	965.332	77.9104	965.332	78.7465	965.332	78.3548
1,000.49	84.3374	1,000.49	84.1486	1,000.49	84.3842	1,000.49	83.8406	1,000.49	84.2663	1,000.49	83.3758	1,000.49	83.9542	1,000.49	82.7411	1,000.49	83.2956	1,000.49	82.0863	1,000.49	82.2226	1,000.49	81.4877	1,000.49	81.0986	1,000.49	80.6984	1,000.49	80.2889	1,000.49	79.527	1,000.49	79.4855	1,000.49	78.1829	1,000.49	78.3061	1,000.49	77.1009	1,000.49	77.0951	1,000.49	76.1505	1,000.49	76.5133	1,000.49	75.0248	1,000.49	76.713	1,000.49	74.6591	1,000.49	77.1075	1,000.49	75.8812	1,000.49	76.9419	1,000.49	77.0659	1,000.49	76.5215	1,000.49	77.6695	1,000.49	76.7445	1,000.49	78.009	1,000.49	77.4118	1,000.49	77.9701
1,035.64	84.689	1,035.64	84.658	1,035.64	84.5204	1,035.64	84.3929	1,035.64	84.3521	1,035.64	83.9339	1,035.64	83.9605	1,035.64	83.05	1,035.64	82.8156	1,035.64	81.3926	1,035.64	81.3944	1,035.64	79.4592	1,035.64	80.6172	1,035.64	78.7701	1,035.64	79.613	1,035.64	78.4275	1,035.64	77.9489	1,035.64	77.1196	1,035.64	76.5466	1,035.64	75.6608	1,035.64	76.0413	1,035.64	76.1148	1,035.64	76.1106	1,035.64	77.104	1,035.64	76.3974	1,035.64	76.9036	1,035.64	75.484	1,035.64	77.1773	1,035.64	74.061	1,035.64	78.5665	1,035.64	75.5804	1,035.64	79.2665	1,035.64	77.2869	1,035.64	78.6148	1,035.64	77.4348	1,035.64	77.5701
1,072.27	84.216	1,072.27	84.3686	1,072.27	84.0624	1,072.27	84.2611	1,072.27	83.944	1,072.27	83.5888	1,072.27	83.7146	1,072.27	82.4432	1,072.27	83.0412	1,072.27	81.1959	1,072.27	81.7512	1,072.27	79.8468	1,072.27	80.4723	1,072.27	78.4323	1,072.27	80.044	1,072.27	77.9172	1,072.27	79.6773	1,072.27	77.9877	1,072.27	77.968	1,072.27	77.2353	1,072.27	76.0148	1,072.27	75.5694	1,072.27	76.5006	1,072.27	74.084	1,072.27	76.5693	1,072.27	73.9542	1,072.27	76.0344	1,072.27	75.2109	1,072.27	76.0758	1,072.27	77.0235	1,072.27	75.1069	1,072.27	77.926	1,072.27	75.4125	1,072.27	77.6702	1,072.27	76.8735	1,072.27	77.2937
1,108.89	83.9832	1,108.89	83.968	1,108.89	83.8253	1,108.89	84.0145	1,108.89	83.4884	1,108.89	83.7504	1,108.89	83.1171	1,108.89	82.4858	1,108.89	82.487	1,108.89	80.3763	1,108.89	81.8423	1,108.89	78.7642	1,108.89	81.1683	1,108.89	77.0355	1,108.89	78.7221	1,108.89	75.6596	1,108.89	75.3296	1,108.89	75.3029	1,108.89	75.106	1,108.89	75.3808	1,108.89	75.7917	1,108.89	74.5007	1,108.89	75.2248	1,108.89	73.2707	1,108.89	75.8602	1,108.89	73.6097	1,108.89	75.4178	1,108.89	75.0413	1,108.89	73.6854	1,108.89	76.0905	1,108.89	74.8053	1,108.89	76.7364	1,108.89	75.4659	1,108.89	77.0241	1,108.89	75.3833	1,108.89	76.5051
1,148.44	84.0269	1,148.44	83.8398	1,148.44	83.8628	1,148.44	83.6173	1,148.44	83.1143	1,148.44	83.4215	1,148.44	82.286	1,148.44	82.8306	1,148.44	81.882	1,148.44	80.9082	1,148.44	81.0447	1,148.44	77.3319	1,148.44	79.3821	1,148.44	74.4906	1,148.44	78.3122	1,148.44	75.0807	1,148.44	78.4051	1,148.44	76.1623	1,148.44	77.4562	1,148.44	75.8778	1,148.44	74.4931	1,148.44	75.085	1,148.44	74.5	1,148.44	74.6014	1,148.44	74.6244	1,148.44	74.3116	1,148.44	73.3414	1,148.44	74.4033	1,148.44	75.613	1,148.44	75.207	1,148.44	75.614	1,148.44	76.1089	1,148.44	75.1295	1,148.44	76.4159	1,148.44	76.6327	1,148.44	76.7272
1,189.45	83.5918	1,189.45	83.3673	1,189.45	83.5171	1,189.45	82.8079	1,189.45	83.2042	1,189.45	81.9557	1,189.45	82.7277	1,189.45	80.8914	1,189.45	81.9299	1,189.45	79.4905	1,189.45	80.7766	1,189.45	77.8382	1,189.45	79.8842	1,189.45	76.5504	1,189.45	78.844	1,189.45	76.5897	1,189.45	76.5361	1,189.45	77.9568	1,189.45	74.8621	1,189.45	77.6144	1,189.45	74.4101	1,189.45	75.1467	1,189.45	73.0196	1,189.45	73.5087	1,189.45	74.9523	1,189.45	73.4522	1,189.45	76.884	1,189.45	71.8409	1,189.45	74.6381	1,189.45	71.5609	1,189.45	73.6256	1,189.45	73.6146	1,189.45	74.1151	1,189.45	75.4057	1,189.45	74.3381	1,189.45	75.6228
1,230.47	84.4567	1,230.47	83.9716	1,230.47	84.0957	1,230.47	83.1751	1,230.47	83.1516	1,230.47	82.4118	1,230.47	82.0112	1,230.47	80.9985	1,230.47	80.7785	1,230.47	78.9816	1,230.47	79.8659	1,230.47	78.2517	1,230.47	79.1347	1,230.47	78.3243	1,230.47	78.2059	1,230.47	76.6459	1,230.47	77.5784	1,230.47	75.0427	1,230.47	76.4328	1,230.47	76.4592	1,230.47	73.1873	1,230.47	77.4426	1,230.47	72.1038	1,230.47	75.7613	1,230.47	73.2934	1,230.47	72.3802	1,230.47	71.9675	1,230.47	71.3266	1,230.47	73.025	1,230.47	73.592	1,230.47	74.4906	1,230.47	75.7216	1,230.47	73.9382	1,230.47	76.2789	1,230.47	74.4161	1,230.47	75.5448
1,274.41	84.9758	1,274.41	84.53	1,274.41	84.7627	1,274.41	83.634	1,274.41	83.7804	1,274.41	82.6567	1,274.41	82.5749	1,274.41	81.4641	1,274.41	81.5339	1,274.41	79.2733	1,274.41	80.4565	1,274.41	77.8441	1,274.41	79.735	1,274.41	78.0474	1,274.41	78.0502	1,274.41	75.9703	1,274.41	75.1501	1,274.41	72.235	1,274.41	74.395	1,274.41	74.6284	1,274.41	74.2261	1,274.41	75.7761	1,274.41	72.6073	1,274.41	74.4993	1,274.41	70.7544	1,274.41	72.9529	1,274.41	72.8722	1,274.41	71.3147	1,274.41	74.6132	1,274.41	71.2742	1,274.41	71.7448	1,274.41	74.2673	1,274.41	71.4889	1,274.41	75.9019	1,274.41	74.222	1,274.41	75.5203
1,319.82	85.3201	1,319.82	85.1159	1,319.82	85.1271	1,319.82	84.7864	1,319.82	84.2322	1,319.82	83.8747	1,319.82	82.745	1,319.82	82.1821	1,319.82	81.4392	1,319.82	80.6143	1,319.82	80.5048	1,319.82	79.8126	1,319.82	78.6594	1,319.82	78.8532	1,319.82	76.7522	1,319.82	76.9218	1,319.82	76.4878	1,319.82	73.0349	1,319.82	74.5303	1,319.82	72.1342	1,319.82	70.8264	1,319.82	75.1431	1,319.82	71.1292	1,319.82	75.8009	1,319.82	72.215	1,319.82	75.4686	1,319.82	75.5341	1,319.82	73.109	1,319.82	73.8336	1,319.82	70.6328	1,319.82	71.086	1,319.82	73.2834	1,319.82	72.5151	1,319.82	75.6512	1,319.82	73.1373	1,319.82	75.6945
1,366.7	84.9921	1,366.7	85.3032	1,366.7	84.6635	1,366.7	85.2762	1,366.7	84.1043	1,366.7	84.1358	1,366.7	82.9585	1,366.7	81.3227	1,366.7	81.5197	1,366.7	79.5894	1,366.7	79.3635	1,366.7	80.4709	1,366.7	78.3323	1,366.7	79.6338	1,366.7	77.4423	1,366.7	77.8389	1,366.7	75.4446	1,366.7	75.486	1,366.7	74.1315	1,366.7	71.2154	1,366.7	72.2436	1,366.7	73.1886	1,366.7	70.982	1,366.7	76.1633	1,366.7	71.0644	1,366.7	76.7592	1,366.7	72.0133	1,366.7	75.346	1,366.7	73.3826	1,366.7	72.3585	1,366.7	72.4079	1,366.7	73.4918	1,366.7	72.6003	1,366.7	76.4778	1,366.7	73.0615	1,366.7	75.3977
1,413.57	84.8905	1,413.57	85.1894	1,413.57	84.7789	1,413.57	85.2061	1,413.57	84.1459	1,413.57	83.8793	1,413.57	83.181	1,413.57	81.6181	1,413.57	81.5914	1,413.57	79.9024	1,413.57	80.1472	1,413.57	79.0093	1,413.57	79.2988	1,413.57	78.1067	1,413.57	77.1955	1,413.57	76.7653	1,413.57	76.4127	1,413.57	76.8956	1,413.57	76.3761	1,413.57	73.715	1,413.57	72.1803	1,413.57	69.8239	1,413.57	69.3469	1,413.57	72.9516	1,413.57	67.8014	1,413.57	74.2884	1,413.57	70.6415	1,413.57	74.1595	1,413.57	74.2395	1,413.57	72.4998	1,413.57	73.1603	1,413.57	72.6378	1,413.57	72.7957	1,413.57	74.2599	1,413.57	73.3542	1,413.57	74.3347
1,463.38	84.2999	1,463.38	84.603	1,463.38	83.9535	1,463.38	84.7929	1,463.38	83.5181	1,463.38	83.3195	1,463.38	83.1229	1,463.38	80.5167	1,463.38	81.7737	1,463.38	79.4163	1,463.38	80.0315	1,463.38	78.3152	1,463.38	78.9626	1,463.38	73.9392	1,463.38	76.4341	1,463.38	70.992	1,463.38	74.5955	1,463.38	70.7588	1,463.38	73.6621	1,463.38	67.6096	1,463.38	70.1318	1,463.38	64.9577	1,463.38	70.1987	1,463.38	68.6447	1,463.38	72.9939	1,463.38	72.64	1,463.38	72.6957	1,463.38	73.8428	1,463.38	73.9204	1,463.38	72.2647	1,463.38	73.9485	1,463.38	70.161	1,463.38	72.9454	1,463.38	72.1652	1,463.38	72.2325	1,463.38	73.4165
1,516.11	83.139	1,516.11	83.5756	1,516.11	83.2672	1,516.11	83.429	1,516.11	83.4734	1,516.11	82.4058	1,516.11	82.7126	1,516.11	81.3703	1,516.11	81.6873	1,516.11	79.9704	1,516.11	80.1573	1,516.11	77.4784	1,516.11	78.1317	1,516.11	73.6827	1,516.11	75.3721	1,516.11	70.6348	1,516.11	72.9502	1,516.11	71.2823	1,516.11	72.0929	1,516.11	70.7238	1,516.11	72.6895	1,516.11	66.6572	1,516.11	71.7115	1,516.11	64.6678	1,516.11	70.6914	1,516.11	67.3307	1,516.11	72.0242	1,516.11	71.1489	1,516.11	67.5838	1,516.11	72.215	1,516.11	72.7403	1,516.11	70.1315	1,516.11	71.9435	1,516.11	69.9287	1,516.11	71.1429	1,516.11	70.6288
1,568.85	82.8353	1,568.85	82.408	1,568.85	82.8167	1,568.85	82.3331	1,568.85	82.2872	1,568.85	81.4983	1,568.85	81.7109	1,568.85	79.9145	1,568.85	80.1452	1,568.85	78.1322	1,568.85	78.7326	1,568.85	74.7733	1,568.85	77.8272	1,568.85	72.9278	1,568.85	74.4955	1,568.85	72.7349	1,568.85	72.7773	1,568.85	72.9216	1,568.85	72.2686	1,568.85	74.3305	1,568.85	70.0302	1,568.85	74.2447	1,568.85	66.3058	1,568.85	70.599	1,568.85	68.0942	1,568.85	64.1423	1,568.85	65.3103	1,568.85	68.7699	1,568.85	70.3979	1,568.85	70.6939	1,568.85	73.5759	1,568.85	67.0547	1,568.85	71.4958	1,568.85	67.3242	1,568.85	70.339	1,568.85	69.4116
1,624.51	82.9171	1,624.51	81.7291	1,624.51	82.7143	1,624.51	80.1646	1,624.51	81.913	1,624.51	79.7807	1,624.51	80.6532	1,624.51	79.6234	1,624.51	79.1834	1,624.51	77.8722	1,624.51	78.2002	1,624.51	73.9324	1,624.51	75.9312	1,624.51	70.5544	1,624.51	72.9466	1,624.51	71.2706	1,624.51	72.6237	1,624.51	70.2124	1,624.51	72.2147	1,624.51	71.1233	1,624.51	69.0483	1,624.51	73.7322	1,624.51	68.514	1,624.51	72.4694	1,624.51	63.6727	1,624.51	66.8198	1,624.51	62.2144	1,624.51	65.5732	1,624.51	71.3836	1,624.51	70.02	1,624.51	70.4387	1,624.51	69.0238	1,624.51	70.6861	1,624.51	68.0325	1,624.51	70.0441	1,624.51	69.4566
1,681.64	83.3435	1,681.64	81.9256	1,681.64	83.4001	1,681.64	79.7421	1,681.64	81.9222	1,681.64	79.386	1,681.64	79.8868	1,681.64	79.6967	1,681.64	78.604	1,681.64	75.0149	1,681.64	77.6477	1,681.64	68.2082	1,681.64	74.9885	1,681.64	71.3341	1,681.64	71.166	1,681.64	69.7825	1,681.64	71.5688	1,681.64	65.8028	1,681.64	68.6733	1,681.64	71.3701	1,681.64	70.7684	1,681.64	73.3008	1,681.64	70.662	1,681.64	72.6158	1,681.64	58.5503	1,681.64	71.0899	1,681.64	66.9362	1,681.64	65.6976	1,681.64	69.2015	1,681.64	68.8504	1,681.64	65.1032	1,681.64	67.1256	1,681.64	68.9762	1,681.64	66.0438	1,681.64	70.4533	1,681.64	70.1552
1,741.7	83.3598	1,741.7	82.2758	1,741.7	82.9754	1,741.7	80.1791	1,741.7	81.6248	1,741.7	78.5121	1,741.7	79.8951	1,741.7	76.7171	1,741.7	77.0786	1,741.7	73.5277	1,741.7	73.5426	1,741.7	72.4639	1,741.7	71.0717	1,741.7	70.13	1,741.7	69.014	1,741.7	67.9186	1,741.7	69.9027	1,741.7	65.2055	1,741.7	67.2171	1,741.7	68.2775	1,741.7	67.312	1,741.7	69.5992	1,741.7	67.6396	1,741.7	69.5128	1,741.7	65.7777	1,741.7	70.635	1,741.7	58.6749	1,741.7	68.9594	1,741.7	68.2798	1,741.7	66.9008	1,741.7	66.3797	1,741.7	64.7406	1,741.7	67.6526	1,741.7	63.0319	1,741.7	70.4762	1,741.7	67.6672
1,803.22	82.9149	1,803.22	81.3345	1,803.22	82.8235	1,803.22	80.3111	1,803.22	82.0904	1,803.22	78.33	1,803.22	79.2655	1,803.22	73.25	1,803.22	76.7521	1,803.22	71.0667	1,803.22	74.693	1,803.22	69.8114	1,803.22	65.6978	1,803.22	68.5787	1,803.22	64.0613	1,803.22	65.019	1,803.22	65.4704	1,803.22	64.5548	1,803.22	68.8349	1,803.22	53.5031	1,803.22	68.4116	1,803.22	61.0762	1,803.22	62.7123	1,803.22	67.6386	1,803.22	67.6984	1,803.22	64.5664	1,803.22	61.2793	1,803.22	58.2249	1,803.22	66.7461	1,803.22	63.8562	1,803.22	66.0473	1,803.22	64.1596	1,803.22	71.8722	1,803.22	64.0757	1,803.22	68.5992	1,803.22	68.9613
1,866.21	81.7814	1,866.21	80.8106	1,866.21	82.8	1,866.21	80.4397	1,866.21	81.8415	1,866.21	78.3743	1,866.21	78.9264	1,866.21	73.1299	1,866.21	76.7271	1,866.21	68.8076	1,866.21	73.6067	1,866.21	67.7671	1,866.21	67.5719	1,866.21	67.9773	1,866.21	67.6712	1,866.21	66.0459	1,866.21	67.0169	1,866.21	59.7791	1,866.21	65.593	1,866.21	61.5205	1,866.21	67.5505	1,866.21	50.2169	1,866.21	64.0534	1,866.21	61.399	1,866.21	60.2647	1,866.21	65.4219	1,866.21	63.1392	1,866.21	62.2803	1,866.21	60.9837	1,866.21	64.3859	1,866.21	62.021	1,866.21	67.1683	1,866.21	67.7917	1,866.21	63.8143	1,866.21	68.7578	1,866.21	66.2348
1,932.13	80.6525	1,932.13	80.4935	1,932.13	81.5758	1,932.13	80.1659	1,932.13	80.4595	1,932.13	77.5262	1,932.13	78.7562	1,932.13	70.7313	1,932.13	75.6569	1,932.13	63.247	1,932.13	71.1868	1,932.13	65.9727	1,932.13	67.3527	1,932.13	63.9361	1,932.13	69.4599	1,932.13	61.0557	1,932.13	66.8663	1,932.13	66.3505	1,932.13	57.6695	1,932.13	60.3322	1,932.13	63.4854	1,932.13	52.2497	1,932.13	63.1307	1,932.13	66.1886	1,932.13	55.6218	1,932.13	62.7143	1,932.13	53.6101	1,932.13	57.0169	1,932.13	53.4113	1,932.13	62.0316	1,932.13	59.3737	1,932.13	62.3195	1,932.13	64.7414	1,932.13	61.9895	1,932.13	68.8087	1,932.13	64.8569
1,999.51	81.4609	1,999.51	80.3158	1,999.51	81.431	1,999.51	78.2884	1,999.51	79.7791	1,999.51	75.7893	1,999.51	76.9119	1,999.51	72.3289	1,999.51	70.9441	1,999.51	64.1607	1,999.51	67.17	1,999.51	64.0737	1,999.51	59.1301	1,999.51	67.1156	1,999.51	64.658	1,999.51	64.2212	1,999.51	64.0903	1,999.51	60.1403	1,999.51	65.552	1,999.51	64.3109	1,999.51	52.7924	1,999.51	50.3102	1,999.51	59.7876	1,999.51	60.7753	1,999.51	57.8884	1,999.51	66.4594	1,999.51	53.5725	1,999.51	54.5513	1,999.51	60.6533	1,999.51	55.4102	1,999.51	50.2742	1,999.51	64.7097	1,999.51	67.1293	1,999.51	64.8169	1,999.51	66.1373	1,999.51	64.1995
2,069.82	82.2519	2,069.82	81.0553	2,069.82	81.6982	2,069.82	77.91	2,069.82	80.0171	2,069.82	73.7646	2,069.82	75.7098	2,069.82	69.1819	2,069.82	69.0016	2,069.82	61.9598	2,069.82	63.3663	2,069.82	66.7448	2,069.82	55.0531	2,069.82	68.1718	2,069.82	67.6368	2,069.82	64.5575	2,069.82	69.8315	2,069.82	61.7109	2,069.82	68.7999	2,069.82	62.0407	2,069.82	66.9034	2,069.82	61.6038	2,069.82	62.691	2,069.82	61.652	2,069.82	61.5705	2,069.82	67.7923	2,069.82	65.1004	2,069.82	60.4869	2,069.82	59.7124	2,069.82	54.2482	2,069.82	58.9919	2,069.82	46.7225	2,069.82	66.4226	2,069.82	64.4634	2,069.82	68.7025	2,069.82	64.852
2,143.07	82.2054	2,143.07	81.6648	2,143.07	82.2748	2,143.07	77.8071	2,143.07	80.7278	2,143.07	73.1614	2,143.07	75.6909	2,143.07	66.1254	2,143.07	67.7268	2,143.07	60.6334	2,143.07	60.9041	2,143.07	57.8642	2,143.07	64.5033	2,143.07	66.1924	2,143.07	63.9591	2,143.07	65.9188	2,143.07	70.1099	2,143.07	68.1487	2,143.07	70.2022	2,143.07	65.0692	2,143.07	70.0496	2,143.07	64.7314	2,143.07	66.4074	2,143.07	64.9412	2,143.07	65.2427	2,143.07	66.9963	2,143.07	64.0784	2,143.07	60.5517	2,143.07	57.7506	2,143.07	47.2115	2,143.07	58.4945	2,143.07	40.4461	2,143.07	62.1679	2,143.07	65.0507	2,143.07	67.5318	2,143.07	66.824
2,219.24	81.1037	2,219.24	81.5013	2,219.24	81.2115	2,219.24	79.4623	2,219.24	79.9475	2,219.24	73.7816	2,219.24	76.814	2,219.24	63.142	2,219.24	68.7911	2,219.24	56.725	2,219.24	59.9567	2,219.24	68.7417	2,219.24	69.3627	2,219.24	69.7162	2,219.24	71.9189	2,219.24	66.8498	2,219.24	67.8272	2,219.24	69.5738	2,219.24	71.9224	2,219.24	70.5152	2,219.24	69.2258	2,219.24	70.1925	2,219.24	66.4703	2,219.24	60.2243	2,219.24	64.5938	2,219.24	59.0827	2,219.24	66.2369	2,219.24	64.375	2,219.24	62.9971	2,219.24	62.0546	2,219.24	55.6121	2,219.24	60.9385	2,219.24	65.5982	2,219.24	61.6626	2,219.24	69.5618	2,219.24	68.5485
2,296.88	81.3897	2,296.88	80.5758	2,296.88	79.8931	2,296.88	77.2836	2,296.88	79.7855	2,296.88	72.0527	2,296.88	74.2228	2,296.88	58.0867	2,296.88	59.5594	2,296.88	69.5205	2,296.88	70.5717	2,296.88	70.8819	2,296.88	73.1676	2,296.88	66.0483	2,296.88	74.5032	2,296.88	63.3454	2,296.88	72.6545	2,296.88	56.2827	2,296.88	67.5301	2,296.88	65.2222	2,296.88	66.0761	2,296.88	73.334	2,296.88	70.082	2,296.88	65.2389	2,296.88	70.4618	2,296.88	65.1803	2,296.88	64.533	2,296.88	61.8538	2,296.88	52.4907	2,296.88	51.0261	2,296.88	50.9548	2,296.88	60.9494	2,296.88	56.589	2,296.88	66.8528	2,296.88	65.0472	2,296.88	66.0114
2,378.91	82.7413	2,378.91	80.3581	2,378.91	80.2884	2,378.91	77.9551	2,378.91	76.3483	2,378.91	70.8808	2,378.91	68.9334	2,378.91	63.5251	2,378.91	67.2028	2,378.91	68.981	2,378.91	71.9714	2,378.91	72.4338	2,378.91	69.845	2,378.91	69.4598	2,378.91	73.8397	2,378.91	66.4067	2,378.91	77.6735	2,378.91	64.1631	2,378.91	75.7545	2,378.91	55.5306	2,378.91	71.1819	2,378.91	62.3604	2,378.91	69.0473	2,378.91	70.343	2,378.91	69.2082	2,378.91	65.95	2,378.91	69.5566	2,378.91	58.3379	2,378.91	61.6323	2,378.91	60.0906	2,378.91	68.4966	2,378.91	65.4524	2,378.91	63.1814	2,378.91	57.2915	2,378.91	67.2219	2,378.91	66.3651
2,462.4	84.3214	2,462.4	82.6153	2,462.4	82.7785	2,462.4	79.1339	2,462.4	76.9143	2,462.4	69.5683	2,462.4	70.3916	2,462.4	68.348	2,462.4	72.6644	2,462.4	70.9156	2,462.4	74.7225	2,462.4	67.1707	2,462.4	72.8849	2,462.4	71.9286	2,462.4	71.9324	2,462.4	70.5121	2,462.4	72.2973	2,462.4	66.7101	2,462.4	73.9716	2,462.4	65.7992	2,462.4	70.8103	2,462.4	66.513	2,462.4	69.7163	2,462.4	66.2889	2,462.4	69.1179	2,462.4	66.8242	2,462.4	67.7155	2,462.4	61.8934	2,462.4	62.239	2,462.4	58.3016	2,462.4	61.686	2,462.4	61.716	2,462.4	60.3858	2,462.4	62.1678	2,462.4	68.8559	2,462.4	68.1386
2,548.83	83.9287	2,548.83	83.0508	2,548.83	83.7932	2,548.83	78.4982	2,548.83	79.5115	2,548.83	69.968	2,548.83	68.413	2,548.83	70.7872	2,548.83	72.1021	2,548.83	68.9946	2,548.83	75.8218	2,548.83	70.3172	2,548.83	74.8365	2,548.83	70.5265	2,548.83	67.7635	2,548.83	71.9089	2,548.83	73.971	2,548.83	71.7779	2,548.83	74.3125	2,548.83	66.7394	2,548.83	66.8726	2,548.83	61.9009	2,548.83	68.1758	2,548.83	66.3544	2,548.83	70.1	2,548.83	67.5576	2,548.83	66.5721	2,548.83	61.4253	2,548.83	63.8644	2,548.83	60.4325	2,548.83	65.0327	2,548.83	60.0992	2,548.83	61.9018	2,548.83	64.2346	2,548.83	69.345	2,548.83	68.2784
2,639.65	83.065	2,639.65	81.9348	2,639.65	82.8024	2,639.65	77.3362	2,639.65	80.3327	2,639.65	73.9884	2,639.65	74.9506	2,639.65	70.109	2,639.65	74.4747	2,639.65	72.0215	2,639.65	77.1848	2,639.65	73.8902	2,639.65	75.7488	2,639.65	73.4196	2,639.65	75.0747	2,639.65	69.701	2,639.65	74.2752	2,639.65	66.5861	2,639.65	73.8065	2,639.65	69.8902	2,639.65	66.5735	2,639.65	68.6785	2,639.65	66.6972	2,639.65	65.4769	2,639.65	70.9909	2,639.65	68.288	2,639.65	66.1663	2,639.65	66.1218	2,639.65	64.3482	2,639.65	60.6246	2,639.65	65.266	2,639.65	62.6112	2,639.65	60.0838	2,639.65	65.487	2,639.65	69.6781	2,639.65	66.8624
2,731.93	82.8773	2,731.93	79.9793	2,731.93	81.9299	2,731.93	75.9261	2,731.93	79.8867	2,731.93	73.6413	2,731.93	76.9573	2,731.93	73.6653	2,731.93	76.7698	2,731.93	74.318	2,731.93	76.9927	2,731.93	75.238	2,731.93	77.2386	2,731.93	71.6375	2,731.93	76.3231	2,731.93	71.8708	2,731.93	72.8806	2,731.93	70.9343	2,731.93	69.1062	2,731.93	71.0451	2,731.93	58.7626	2,731.93	68.3965	2,731.93	67.5924	2,731.93	68.2	2,731.93	72.1647	2,731.93	65.8914	2,731.93	69.3322	2,731.93	67.731	2,731.93	63.4692	2,731.93	60.1393	2,731.93	65.3778	2,731.93	61.1851	2,731.93	60.3496	2,731.93	66.5468	2,731.93	70.2563	2,731.93	67.2823
2,828.61	83.3018	2,828.61	80.5489	2,828.61	81.5467	2,828.61	77.6641	2,828.61	78.9602	2,828.61	74.936	2,828.61	77.9406	2,828.61	76.3086	2,828.61	78.3159	2,828.61	74.8493	2,828.61	77.6158	2,828.61	73.2534	2,828.61	77.295	2,828.61	72.2962	2,828.61	76.2065	2,828.61	73.2348	2,828.61	74.961	2,828.61	72.6805	2,828.61	68.4383	2,828.61	68.0707	2,828.61	70.0198	2,828.61	70.0614	2,828.61	65.3696	2,828.61	66.2692	2,828.61	73.8873	2,828.61	68.3258	2,828.61	69.2729	2,828.61	66.1665	2,828.61	67.9845	2,828.61	62.3966	2,828.61	67.0817	2,828.61	58.8855	2,828.61	57.9662	2,828.61	66.7051	2,828.61	70.9592	2,828.61	70.1646
2,928.22	83.3477	2,928.22	81.0778	2,928.22	82.5177	2,928.22	78.5396	2,928.22	79.1064	2,928.22	77.6539	2,928.22	77.8299	2,928.22	76.0289	2,928.22	78.8837	2,928.22	75.7492	2,928.22	78.9686	2,928.22	74.4912	2,928.22	78.1792	2,928.22	76.2411	2,928.22	77.4499	2,928.22	75.4455	2,928.22	73.6957	2,928.22	69.9182	2,928.22	62.6336	2,928.22	70.5647	2,928.22	70.8802	2,928.22	67.4305	2,928.22	70.3113	2,928.22	70.3041	2,928.22	72.7492	2,928.22	67.2428	2,928.22	70.6988	2,928.22	69.3986	2,928.22	66.2358	2,928.22	63.7047	2,928.22	61.3807	2,928.22	60.344	2,928.22	64.138	2,928.22	68.2405	2,928.22	72.1696	2,928.22	67.8976
3,030.76	83.1926	3,030.76	81.4522	3,030.76	83.0652	3,030.76	80.2126	3,030.76	78.4329	3,030.76	78.5486	3,030.76	77.8487	3,030.76	75.543	3,030.76	79.3593	3,030.76	76.3969	3,030.76	79.8194	3,030.76	76.1125	3,030.76	77.741	3,030.76	76.9019	3,030.76	77.4566	3,030.76	71.8391	3,030.76	71.6356	3,030.76	72.1435	3,030.76	65.5191	3,030.76	71.1433	3,030.76	70.4058	3,030.76	69.6334	3,030.76	69.3449	3,030.76	68.6295	3,030.76	71.2984	3,030.76	69.3243	3,030.76	73.1498	3,030.76	66.6684	3,030.76	64.672	3,030.76	66.7934	3,030.76	61.4334	3,030.76	62.102	3,030.76	66.2583	3,030.76	67.0762	3,030.76	71.5431	3,030.76	69.9522
3,137.7	82.163	3,137.7	81.039	3,137.7	83.2097	3,137.7	81.0457	3,137.7	79.0517	3,137.7	78.7745	3,137.7	76.762	3,137.7	78.6935	3,137.7	79.4488	3,137.7	77.7187	3,137.7	80.5289	3,137.7	77.837	3,137.7	76.4678	3,137.7	73.6442	3,137.7	77.3559	3,137.7	73.1198	3,137.7	60.4064	3,137.7	73.5092	3,137.7	69.5743	3,137.7	72.0251	3,137.7	71.0393	3,137.7	70.9352	3,137.7	65.5739	3,137.7	68.31	3,137.7	71.9262	3,137.7	69.6696	3,137.7	72.2288	3,137.7	68.0482	3,137.7	66.017	3,137.7	68.3814	3,137.7	62.0671	3,137.7	59.5306	3,137.7	66.8101	3,137.7	67.4734	3,137.7	71.8148	3,137.7	68.6343
3,249.02	81.3151	3,249.02	81.3195	3,249.02	82.973	3,249.02	80.2179	3,249.02	79.791	3,249.02	79.6767	3,249.02	76.2921	3,249.02	78.6141	3,249.02	78.9396	3,249.02	79.4238	3,249.02	80.8758	3,249.02	77.8357	3,249.02	78.2391	3,249.02	75.0219	3,249.02	77.118	3,249.02	77.0275	3,249.02	67.1965	3,249.02	73.3049	3,249.02	75.075	3,249.02	69.601	3,249.02	73.6731	3,249.02	68.4234	3,249.02	72.7759	3,249.02	71.1892	3,249.02	70.5343	3,249.02	67.2094	3,249.02	73.3664	3,249.02	68.8715	3,249.02	69.1961	3,249.02	65.2086	3,249.02	65.1571	3,249.02	62.3347	3,249.02	68.7148	3,249.02	66.3478	3,249.02	71.1964	3,249.02	66.4013
3,363.28	81.8494	3,363.28	81.0852	3,363.28	81.9562	3,363.28	80.337	3,363.28	79.8477	3,363.28	79.2307	3,363.28	76.9638	3,363.28	79.9445	3,363.28	79.4688	3,363.28	78.9171	3,363.28	80.5127	3,363.28	75.2724	3,363.28	79.6196	3,363.28	76.7789	3,363.28	79.6237	3,363.28	71.9877	3,363.28	75.394	3,363.28	71.1051	3,363.28	77.6177	3,363.28	70.3401	3,363.28	75.1998	3,363.28	68.453	3,363.28	72.9266	3,363.28	70.0626	3,363.28	69.3143	3,363.28	69.1592	3,363.28	73.584	3,363.28	68.488	3,363.28	69.9953	3,363.28	63.2962	3,363.28	66.0537	3,363.28	63.9191	3,363.28	68.5356	3,363.28	68.1152	3,363.28	71.6657	3,363.28	66.9071
3,481.93	81.5297	3,481.93	83.1073	3,481.93	81.6943	3,481.93	81.9558	3,481.93	80.2659	3,481.93	80.0073	3,481.93	77.6035	3,481.93	79.5639	3,481.93	80.9597	3,481.93	79.0487	3,481.93	79.6631	3,481.93	77.1055	3,481.93	81.023	3,481.93	75.7693	3,481.93	80.8313	3,481.93	72.3258	3,481.93	78.3723	3,481.93	73.7064	3,481.93	78.3215	3,481.93	69.5684	3,481.93	75.0765	3,481.93	70.8316	3,481.93	75.4922	3,481.93	66.7804	3,481.93	67.0513	3,481.93	71.6538	3,481.93	72.6851	3,481.93	66.3951	3,481.93	68.9174	3,481.93	65.6311	3,481.93	66.4557	3,481.93	64.9148	3,481.93	68.2715	3,481.93	68.177	3,481.93	72.4797	3,481.93	67.6505
3,604.98	81.5549	3,604.98	83.0622	3,604.98	80.8682	3,604.98	81.22	3,604.98	80.9711	3,604.98	81.3466	3,604.98	78.4098	3,604.98	79.8753	3,604.98	80.7927	3,604.98	78.3226	3,604.98	79.2483	3,604.98	77.4644	3,604.98	83.0432	3,604.98	74.3933	3,604.98	79.9654	3,604.98	77.6192	3,604.98	80.6362	3,604.98	73.1909	3,604.98	78.345	3,604.98	73.2609	3,604.98	75.6507	3,604.98	70.1032	3,604.98	76.1258	3,604.98	69.7078	3,604.98	64.6171	3,604.98	70.2	3,604.98	72.1436	3,604.98	67.9817	3,604.98	68.2483	3,604.98	64.4671	3,604.98	64.9903	3,604.98	64.2831	3,604.98	68.1459	3,604.98	65.01	3,604.98	71.6648	3,604.98	69.8675
3,732.42	82.7178	3,732.42	83.4019	3,732.42	81.2581	3,732.42	81.5077	3,732.42	81.4707	3,732.42	80.4385	3,732.42	79.2284	3,732.42	80.3449	3,732.42	79.6914	3,732.42	78.2782	3,732.42	79.7818	3,732.42	77.8387	3,732.42	83.3921	3,732.42	78.6101	3,732.42	80.6557	3,732.42	76.3709	3,732.42	79.9444	3,732.42	74.8859	3,732.42	77.7359	3,732.42	74.0992	3,732.42	76.2731	3,732.42	68.6588	3,732.42	71.9389	3,732.42	70.7496	3,732.42	67.9964	3,732.42	70.9595	3,732.42	73.4071	3,732.42	69.8047	3,732.42	63.623	3,732.42	67.6016	3,732.42	57.2123	3,732.42	63.7586	3,732.42	70.0018	3,732.42	64.3837	3,732.42	71.6448	3,732.42	70.118
3,864.26	81.8803	3,864.26	81.8184	3,864.26	80.9243	3,864.26	81.2529	3,864.26	83.1015	3,864.26	81.5308	3,864.26	79.1976	3,864.26	79.6372	3,864.26	79.2375	3,864.26	80.3996	3,864.26	80.9509	3,864.26	79.8864	3,864.26	83.7854	3,864.26	80.0222	3,864.26	80.3373	3,864.26	75.0542	3,864.26	78.6765	3,864.26	75.9516	3,864.26	74.5972	3,864.26	72.9234	3,864.26	73.6003	3,864.26	73.7325	3,864.26	63.4521	3,864.26	71.2395	3,864.26	72.2041	3,864.26	71.4065	3,864.26	72.1735	3,864.26	70.6686	3,864.26	65.0092	3,864.26	67.7759	3,864.26	59.8013	3,864.26	66.4639	3,864.26	70.9076	3,864.26	65.2526	3,864.26	70.7196	3,864.26	68.6205
4,000.49	82.963	4,000.49	79.2747	4,000.49	76.3474	4,000.49	82.347	4,000.49	81.4722	4,000.49	82.3509	4,000.49	79.9591	4,000.49	80.8309	4,000.49	77.3972	4,000.49	80.9908	4,000.49	82.4763	4,000.49	80.612	4,000.49	84.0467	4,000.49	76.9962	4,000.49	80.0603	4,000.49	77.0331	4,000.49	81.1965	4,000.49	75.4234	4,000.49	73.2404	4,000.49	72.2455	4,000.49	70.2654	4,000.49	70.8147	4,000.49	69.6235	4,000.49	70.0172	4,000.49	72.6829	4,000.49	69.7377	4,000.49	70.3823	4,000.49	70.9641	4,000.49	66.9981	4,000.49	65.1714	4,000.49	55.8777	4,000.49	62.306	4,000.49	68.6722	4,000.49	64.0308	4,000.49	69.5296	4,000.49	67.8115
4,141.11	83.0873	4,141.11	82.5143	4,141.11	80.0889	4,141.11	82.8785	4,141.11	78.9425	4,141.11	81.4441	4,141.11	82.1752	4,141.11	79.4996	4,141.11	78.5841	4,141.11	82.7679	4,141.11	82.2511	4,141.11	79.5245	4,141.11	82.6128	4,141.11	80.0575	4,141.11	79.375	4,141.11	74.502	4,141.11	81.7019	4,141.11	72.1664	4,141.11	61.4903	4,141.11	70.9194	4,141.11	74.862	4,141.11	70.0088	4,141.11	75.793	4,141.11	68.8272	4,141.11	71.9967	4,141.11	67.2915	4,141.11	62.8783	4,141.11	71.1752	4,141.11	70.2205	4,141.11	63.8012	4,141.11	56.3191	4,141.11	60.6961	4,141.11	70.5135	4,141.11	64.0126	4,141.11	68.613	4,141.11	70.1788
4,287.6	80.8794	4,287.6	82.3771	4,287.6	80.4893	4,287.6	82.7516	4,287.6	78.6554	4,287.6	79.0221	4,287.6	81.5452	4,287.6	83.3236	4,287.6	79.2613	4,287.6	81.2821	4,287.6	81.3814	4,287.6	79.7082	4,287.6	83.3484	4,287.6	76.3951	4,287.6	81.0806	4,287.6	76.3234	4,287.6	80.3473	4,287.6	74.5551	4,287.6	63.7245	4,287.6	72.608	4,287.6	77.8166	4,287.6	70.5659	4,287.6	77.3206	4,287.6	68.1176	4,287.6	64.3916	4,287.6	69.8356	4,287.6	68.3952	4,287.6	68.709	4,287.6	71.8244	4,287.6	65.0729	4,287.6	50.6035	4,287.6	62.774	4,287.6	69.5872	4,287.6	67.4328	4,287.6	67.7312	4,287.6	69.8242
4,438.48	80.0107	4,438.48	80.156	4,438.48	81.5264	4,438.48	80.6963	4,438.48	79.2595	4,438.48	84.0561	4,438.48	82.5009	4,438.48	83.0884	4,438.48	78.3152	4,438.48	80.5257	4,438.48	82.362	4,438.48	79.1934	4,438.48	82.8313	4,438.48	76.5575	4,438.48	83.037	4,438.48	76.9927	4,438.48	76.5589	4,438.48	70.3853	4,438.48	74.8539	4,438.48	72.0367	4,438.48	77.3152	4,438.48	67.0068	4,438.48	77.7982	4,438.48	68.3023	4,438.48	66.94	4,438.48	68.4364	4,438.48	70.5097	4,438.48	65.7362	4,438.48	69.8506	4,438.48	65.8688	4,438.48	53.4471	4,438.48	64.5015	4,438.48	68.9403	4,438.48	64.5975	4,438.48	69.5454	4,438.48	67.9971
4,595.21	80.4189	4,595.21	82.8164	4,595.21	82.0166	4,595.21	80.6911	4,595.21	81.6899	4,595.21	81.9453	4,595.21	82.6331	4,595.21	80.0857	4,595.21	76.1896	4,595.21	80.4822	4,595.21	82.5215	4,595.21	77.0064	4,595.21	83.4538	4,595.21	78.7584	4,595.21	83.4026	4,595.21	71.5816	4,595.21	75.6895	4,595.21	74.6319	4,595.21	75.8038	4,595.21	72.1462	4,595.21	75.9782	4,595.21	72.9459	4,595.21	73.0319	4,595.21	66.857	4,595.21	71.5806	4,595.21	67.9179	4,595.21	72.9373	4,595.21	67.7521	4,595.21	65.5976	4,595.21	64.7474	4,595.21	47.7334	4,595.21	57.16	4,595.21	68.6324	4,595.21	57.4105	4,595.21	68.3853	4,595.21	67.6436
4,756.35	82.1925	4,756.35	83.4865	4,756.35	80.9312	4,756.35	82.7556	4,756.35	80.8107	4,756.35	82.1829	4,756.35	82.3874	4,756.35	82.4742	4,756.35	77.4709	4,756.35	78.8795	4,756.35	82.9899	4,756.35	79.6698	4,756.35	83.3634	4,756.35	75.9827	4,756.35	83.2443	4,756.35	76.3551	4,756.35	77.072	4,756.35	71.3441	4,756.35	74.7279	4,756.35	71.2723	4,756.35	73.0924	4,756.35	69.365	4,756.35	66.4423	4,756.35	67.4521	4,756.35	71.2901	4,756.35	70.7384	4,756.35	69.3276	4,756.35	65.6116	4,756.35	69.4043	4,756.35	64.9795	4,756.35	56.1394	4,756.35	60.2585	4,756.35	68.3392	4,756.35	59.9623	4,756.35	65.5123	4,756.35	67.3911
4,924.8	81.3262	4,924.8	82.3042	4,924.8	82.4378	4,924.8	81.3183	4,924.8	81.2006	4,924.8	83.7569	4,924.8	82.834	4,924.8	80.6479	4,924.8	80.931	4,924.8	79.9663	4,924.8	82.4063	4,924.8	77.3435	4,924.8	82.8626	4,924.8	78.0625	4,924.8	81.1968	4,924.8	74.1972	4,924.8	74.6796	4,924.8	72.1996	4,924.8	75.5718	4,924.8	71.0286	4,924.8	72.1759	4,924.8	70.1544	4,924.8	54.5393	4,924.8	69.9666	4,924.8	70.1708	4,924.8	67.5584	4,924.8	73.0413	4,924.8	68.1097	4,924.8	69.2108	4,924.8	63.2645	4,924.8	60.5922	4,924.8	55.7082	4,924.8	63.8895	4,924.8	59.8907	4,924.8	67.8693	4,924.8	68.388
5,097.66	82.4822	5,097.66	81.033	5,097.66	80.5568	5,097.66	83.1134	5,097.66	83.7023	5,097.66	81.5293	5,097.66	81.8984	5,097.66	80.3691	5,097.66	80.7583	5,097.66	80.1697	5,097.66	80.7709	5,097.66	79.0685	5,097.66	81.838	5,097.66	74.7793	5,097.66	73.3125	5,097.66	74.7432	5,097.66	75.2697	5,097.66	72.9947	5,097.66	70.9005	5,097.66	69.6694	5,097.66	67.0804	5,097.66	69.164	5,097.66	64.1304	5,097.66	66.9871	5,097.66	68.6361	5,097.66	66.8908	5,097.66	68.903	5,097.66	69.0738	5,097.66	63.2368	5,097.66	63.3993	5,097.66	59.7069	5,097.66	54.9243	5,097.66	66.4361	5,097.66	56.5003	5,097.66	68.1198	5,097.66	68.1954
5,277.83	82.7388	5,277.83	83.404	5,277.83	81.0029	5,277.83	83.4938	5,277.83	83.2648	5,277.83	82.6696	5,277.83	83.0663	5,277.83	82.2404	5,277.83	81.454	5,277.83	79.4486	5,277.83	80.5209	5,277.83	76.5017	5,277.83	78.8216	5,277.83	77.6292	5,277.83	75.4804	5,277.83	75.4906	5,277.83	76.284	5,277.83	70.2238	5,277.83	69.4835	5,277.83	70.5034	5,277.83	69.5636	5,277.83	69.3923	5,277.83	64.3364	5,277.83	66.2192	5,277.83	69.9276	5,277.83	66.0412	5,277.83	69.9945	5,277.83	67.3858	5,277.83	65.7935	5,277.83	65.6045	5,277.83	62.0011	5,277.83	58.6634	5,277.83	66.063	5,277.83	56.7381	5,277.83	67.6063	5,277.83	67.1182
5,463.87	83.7033	5,463.87	82.4878	5,463.87	83.1393	5,463.87	82.9355	5,463.87	81.9198	5,463.87	82.8336	5,463.87	82.4601	5,463.87	80.4122	5,463.87	82.8176	5,463.87	79.9255	5,463.87	77.5914	5,463.87	78.0761	5,463.87	73.191	5,463.87	76.6065	5,463.87	73.2569	5,463.87	71.8334	5,463.87	76.4608	5,463.87	72.6736	5,463.87	73.4952	5,463.87	68.091	5,463.87	65.0153	5,463.87	68.8591	5,463.87	57.5264	5,463.87	65.1264	5,463.87	72.3417	5,463.87	65.4988	5,463.87	71.8732	5,463.87	63.5673	5,463.87	62.2344	5,463.87	64.282	5,463.87	58.9379	5,463.87	51.0938	5,463.87	67.3619	5,463.87	55.4155	5,463.87	65.8012	5,463.87	65.4037
5,657.23	83.866	5,657.23	83.6681	5,657.23	82.8939	5,657.23	83.8663	5,657.23	81.4764	5,657.23	83.186	5,657.23	81.7086	5,657.23	80.7893	5,657.23	82.7099	5,657.23	79.8875	5,657.23	71.9841	5,657.23	77.9702	5,657.23	75.4216	5,657.23	75.8037	5,657.23	76.2505	5,657.23	73.9188	5,657.23	76.509	5,657.23	66.529	5,657.23	68.3985	5,657.23	68.6135	5,657.23	68.0696	5,657.23	64.2653	5,657.23	56.8364	5,657.23	66.5615	5,657.23	71.7389	5,657.23	63.7782	5,657.23	67.0879	5,657.23	63.3741	5,657.23	58.0697	5,657.23	61.4071	5,657.23	60.6921	5,657.23	49.1113	5,657.23	67.8196	5,657.23	63.9119	5,657.23	63.0515	5,657.23	65.3509
5,856.45	82.293	5,856.45	83.8093	5,856.45	81.0117	5,856.45	84.4725	5,856.45	79.2817	5,856.45	83.1902	5,856.45	80.1462	5,856.45	82.3528	5,856.45	81.0376	5,856.45	80.0812	5,856.45	73.8167	5,856.45	77.152	5,856.45	77.0628	5,856.45	72.809	5,856.45	79.5208	5,856.45	71.4385	5,856.45	77.9402	5,856.45	70.5442	5,856.45	74.4014	5,856.45	67.5467	5,856.45	62.1969	5,856.45	65.4899	5,856.45	63.1376	5,856.45	65.9139	5,856.45	71.6787	5,856.45	63.9335	5,856.45	63.3178	5,856.45	66.0442	5,856.45	66.5422	5,856.45	63.6493	5,856.45	64.364	5,856.45	65.4189	5,856.45	67.1572	5,856.45	58.527	5,856.45	63.0014	5,856.45	63.0437
6,062.99	81.8955	6,062.99	83.6961	6,062.99	82.1153	6,062.99	83.9986	6,062.99	81.3284	6,062.99	83.7665	6,062.99	82.4574	6,062.99	82.3808	6,062.99	81.7447	6,062.99	80.547	6,062.99	75.2354	6,062.99	77.6719	6,062.99	80.2514	6,062.99	77.285	6,062.99	81.4032	6,062.99	74.1859	6,062.99	77.9426	6,062.99	71.8187	6,062.99	77.3479	6,062.99	69.6794	6,062.99	62.3165	6,062.99	67.7466	6,062.99	65.9962	6,062.99	69.7011	6,062.99	69.8255	6,062.99	65.1187	6,062.99	62.1551	6,062.99	67.7632	6,062.99	68.2238	6,062.99	67.64	6,062.99	67.3227	6,062.99	66.4484	6,062.99	62.7358	6,062.99	50.4616	6,062.99	60.1549	6,062.99	55.4532
6,276.86	81.1799	6,276.86	83.0894	6,276.86	83.1204	6,276.86	82.6255	6,276.86	84.6962	6,276.86	83.6868	6,276.86	83.14	6,276.86	82.8579	6,276.86	81.9382	6,276.86	80.1165	6,276.86	74.2727	6,276.86	79.4255	6,276.86	81.1539	6,276.86	76.259	6,276.86	80.7044	6,276.86	74.5049	6,276.86	75.9607	6,276.86	72.2501	6,276.86	75.922	6,276.86	70.2813	6,276.86	58.9198	6,276.86	67.1307	6,276.86	63.6984	6,276.86	68.8796	6,276.86	60.1653	6,276.86	67.9235	6,276.86	62.8451	6,276.86	67.3658	6,276.86	67.6725	6,276.86	67.4441	6,276.86	65.8164	6,276.86	66.1903	6,276.86	62.0233	6,276.86	50.8729	6,276.86	63.3211	6,276.86	58.7358
6,498.05	82.2777	6,498.05	82.6041	6,498.05	82.4177	6,498.05	82.321	6,498.05	84.4359	6,498.05	82.9974	6,498.05	83.9729	6,498.05	81.1456	6,498.05	80.6478	6,498.05	80.5002	6,498.05	75.1932	6,498.05	77.8359	6,498.05	79.7428	6,498.05	76.7734	6,498.05	79.1759	6,498.05	72.6097	6,498.05	72.6003	6,498.05	71.514	6,498.05	73.3398	6,498.05	69.5896	6,498.05	63.0736	6,498.05	67.697	6,498.05	63.2024	6,498.05	68.3614	6,498.05	56.0549	6,498.05	65.2484	6,498.05	66.8113	6,498.05	68.4174	6,498.05	66.7543	6,498.05	67.0206	6,498.05	66.4713	6,498.05	62.3532	6,498.05	61.5696	6,498.05	54.5837	6,498.05	60.6771	6,498.05	58.4824
6,726.56	83.5594	6,726.56	82.5735	6,726.56	81.4918	6,726.56	82.2075	6,726.56	81.4569	6,726.56	82.4851	6,726.56	84.546	6,726.56	81.312	6,726.56	77.528	6,726.56	78.892	6,726.56	74.5171	6,726.56	78.6133	6,726.56	77.0048	6,726.56	73.9144	6,726.56	77.9919	6,726.56	73.9713	6,726.56	72.651	6,726.56	70.599	6,726.56	69.6111	6,726.56	68.3672	6,726.56	68.9532	6,726.56	67.6409	6,726.56	63.7911	6,726.56	66.145	6,726.56	63.6419	6,726.56	64.9126	6,726.56	62.1166	6,726.56	67.2255	6,726.56	60.3233	6,726.56	65.5966	6,726.56	64.988	6,726.56	63.9484	6,726.56	62.3635	6,726.56	55.2716	6,726.56	63.4333	6,726.56	59.4807
6,963.87	83.9417	6,963.87	82.7293	6,963.87	83.4114	6,963.87	82.3759	6,963.87	81.3688	6,963.87	81.9683	6,963.87	84.6224	6,963.87	80.5795	6,963.87	75.4304	6,963.87	78.5046	6,963.87	76.1536	6,963.87	77.3214	6,963.87	75.1559	6,963.87	75.0783	6,963.87	77.1272	6,963.87	71.318	6,963.87	73.8291	6,963.87	69.6308	6,963.87	68.8198	6,963.87	69.1977	6,963.87	68.4216	6,963.87	67.0276	6,963.87	63.5032	6,963.87	66.0488	6,963.87	61.4568	6,963.87	64.8604	6,963.87	61.1426	6,963.87	66.3098	6,963.87	54.2139	6,963.87	65.4263	6,963.87	63.9296	6,963.87	63.8218	6,963.87	52.2046	6,963.87	55.5139	6,963.87	63.0461	6,963.87	58.9699
7,209.96	83.8108	7,209.96	83.0737	7,209.96	85.0631	7,209.96	82.1663	7,209.96	82.6702	7,209.96	81.9099	7,209.96	83.7049	7,209.96	80.0686	7,209.96	78.61	7,209.96	79.4402	7,209.96	78.4087	7,209.96	77.1766	7,209.96	70.4564	7,209.96	75.1451	7,209.96	79.3589	7,209.96	73.7515	7,209.96	74.0936	7,209.96	69.8553	7,209.96	71.7605	7,209.96	68.5016	7,209.96	64.6317	7,209.96	66.0489	7,209.96	52.2718	7,209.96	67.4964	7,209.96	64.2814	7,209.96	66.0029	7,209.96	62.199	7,209.96	64.5673	7,209.96	53.368	7,209.96	66.9287	7,209.96	63.4996	7,209.96	64.3456	7,209.96	60.485	7,209.96	54.792	7,209.96	59.1544	7,209.96	58.5001
7,464.84	83.2214	7,464.84	83.4092	7,464.84	84.9284	7,464.84	81.9974	7,464.84	84.2234	7,464.84	81.6439	7,464.84	80.7355	7,464.84	80.5108	7,464.84	81.3158	7,464.84	78.7266	7,464.84	78.3778	7,464.84	78.1177	7,464.84	72.1414	7,464.84	75.1167	7,464.84	78.6882	7,464.84	72.0931	7,464.84	75.9587	7,464.84	69.5587	7,464.84	75.09	7,464.84	66.9189	7,464.84	69.281	7,464.84	64.9877	7,464.84	44.7942	7,464.84	66.7551	7,464.84	61.1759	7,464.84	63.6515	7,464.84	62.0863	7,464.84	64.599	7,464.84	56.3025	7,464.84	66.5967	7,464.84	61.0544	7,464.84	64.9441	7,464.84	61.3985	7,464.84	49.9125	7,464.84	60.5896	7,464.84	50.7609
7,727.05	84.3867	7,727.05	83.1069	7,727.05	83.255	7,727.05	82.6257	7,727.05	83.734	7,727.05	81.0818	7,727.05	77.5737	7,727.05	80.4823	7,727.05	82.4239	7,727.05	78.4258	7,727.05	76.8998	7,727.05	77.6373	7,727.05	73.1828	7,727.05	74.3772	7,727.05	77.507	7,727.05	70.861	7,727.05	74.3804	7,727.05	68.0396	7,727.05	73.8792	7,727.05	66.056	7,727.05	65.3214	7,727.05	62.5749	7,727.05	58.9182	7,727.05	65.5392	7,727.05	58.0051	7,727.05	61.8088	7,727.05	57.1365	7,727.05	63.2028	7,727.05	51.5388	7,727.05	66.4568	7,727.05	61.7223	7,727.05	63.6419	7,727.05	57.376	7,727.05	53.1732	7,727.05	60.4262	7,727.05	56.9179
7,999.51	83.7749	7,999.51	82.5774	7,999.51	83.6422	7,999.51	82.3629	7,999.51	83.2333	7,999.51	81.0837	7,999.51	77.0084	7,999.51	80.6728	7,999.51	82.5323	7,999.51	78.412	7,999.51	75.9041	7,999.51	77.1786	7,999.51	74.5524	7,999.51	73.3017	7,999.51	75.1842	7,999.51	71.0358	7,999.51	72.2239	7,999.51	65.5404	7,999.51	70.9932	7,999.51	66.3921	7,999.51	67.2169	7,999.51	64.6049	7,999.51	60.4639	7,999.51	65.4128	7,999.51	48.5638	7,999.51	61.9483	7,999.51	59.9049	7,999.51	60.9288	7,999.51	51.9856	7,999.51	66.1875	7,999.51	59.9933	7,999.51	63.235	7,999.51	57.6371	7,999.51	53.7781	7,999.51	59.4626	7,999.51	53.821
8,282.23	84.3362	8,282.23	83.4402	8,282.23	84.0014	8,282.23	82.0702	8,282.23	81.9316	8,282.23	81.9476	8,282.23	80.2156	8,282.23	79.8677	8,282.23	81.107	8,282.23	78.7794	8,282.23	77.5863	8,282.23	76.1567	8,282.23	74.023	8,282.23	73.2343	8,282.23	62.6093	8,282.23	71.1208	8,282.23	69.9964	8,282.23	67.8009	8,282.23	65.2751	8,282.23	64.9576	8,282.23	68.2785	8,282.23	61.4822	8,282.23	64.3476	8,282.23	64.2831	8,282.23	54.7801	8,282.23	60.7528	8,282.23	53.6805	8,282.23	59.8419	8,282.23	56.1816	8,282.23	64.7554	8,282.23	59.0384	8,282.23	61.9493	8,282.23	55.4719	8,282.23	55.1296	8,282.23	56.9533	8,282.23	54.0726
8,573.73	82.955	8,573.73	83.2848	8,573.73	82.8351	8,573.73	81.7755	8,573.73	82.4354	8,573.73	81.5359	8,573.73	82.5137	8,573.73	80.2497	8,573.73	80.0492	8,573.73	77.4126	8,573.73	79.4316	8,573.73	75.912	8,573.73	71.7946	8,573.73	71.1217	8,573.73	69.9662	8,573.73	67.7117	8,573.73	69.6419	8,573.73	65.7395	8,573.73	70.9881	8,573.73	63.253	8,573.73	67.6311	8,573.73	61.5203	8,573.73	65.1216	8,573.73	62.2174	8,573.73	54.2018	8,573.73	58.2973	8,573.73	57.5556	8,573.73	60.3892	8,573.73	57.8407	8,573.73	62.6631	8,573.73	53.7327	8,573.73	61.4569	8,573.73	54.0286	8,573.73	53.2179	8,573.73	55.169	8,573.73	56.3614
8,876.95	83.9707	8,876.95	83.078	8,876.95	82.7274	8,876.95	81.9084	8,876.95	83.3272	8,876.95	81.4116	8,876.95	83.0796	8,876.95	80.1175	8,876.95	78.8863	8,876.95	76.9929	8,876.95	80.105	8,876.95	74.6758	8,876.95	65.8772	8,876.95	70.3606	8,876.95	71.8053	8,876.95	68.1363	8,876.95	69.143	8,876.95	67.2697	8,876.95	69.0052	8,876.95	61.7749	8,876.95	65.8565	8,876.95	62.4107	8,876.95	60.5738	8,876.95	60.7865	8,876.95	51.5409	8,876.95	58.2616	8,876.95	54.854	8,876.95	60.6443	8,876.95	50.245	8,876.95	63.0339	8,876.95	52.1076	8,876.95	61.7598	8,876.95	53.2591	8,876.95	58.5081	8,876.95	53.8138	8,876.95	53.0411
9,188.96	83.513	9,188.96	82.65	9,188.96	83.175	9,188.96	81.5464	9,188.96	81.3523	9,188.96	81.5134	9,188.96	83.386	9,188.96	79.5134	9,188.96	77.589	9,188.96	76.4854	9,188.96	79.8087	9,188.96	74.1532	9,188.96	61.3275	9,188.96	71.6483	9,188.96	72.5813	9,188.96	67.973	9,188.96	68.2664	9,188.96	62.6498	9,188.96	65.5571	9,188.96	62.0784	9,188.96	63.2991	9,188.96	59.5038	9,188.96	53.7123	9,188.96	58.6764	9,188.96	53.3644	9,188.96	61.3703	9,188.96	52.4288	9,188.96	60.9583	9,188.96	42.8842	9,188.96	60.5343	9,188.96	54.3257	9,188.96	59.8948	9,188.96	54.4895	9,188.96	56.8748	9,188.96	54.8096	9,188.96	51.0043
9,514.16	83.7855	9,514.16	83.0712	9,514.16	82.5617	9,514.16	82.0066	9,514.16	79.2155	9,514.16	81.4306	9,514.16	82.3349	9,514.16	79.1873	9,514.16	77.6537	9,514.16	76.3331	9,514.16	77.9255	9,514.16	74.6313	9,514.16	69.7743	9,514.16	70.9988	9,514.16	72.4041	9,514.16	66.6875	9,514.16	67.8177	9,514.16	65.5983	9,514.16	62.9223	9,514.16	61.9014	9,514.16	62.0731	9,514.16	59.8016	9,514.16	51.6315	9,514.16	57.9766	9,514.16	50.8694	9,514.16	60.5972	9,514.16	56.3183	9,514.16	59.2358	9,514.16	52.0785	9,514.16	58.4031	9,514.16	52.8637	9,514.16	57.4673	9,514.16	52.2247	9,514.16	59.3468	9,514.16	53.4827	9,514.16	50.7085
9,849.61	83.7066	9,849.61	83.2831	9,849.61	82.973	9,849.61	82.3941	9,849.61	79.3772	9,849.61	81.0848	9,849.61	80.2787	9,849.61	78.7715	9,849.61	78.1194	9,849.61	75.8606	9,849.61	74.1169	9,849.61	74.3673	9,849.61	71.9687	9,849.61	69.8131	9,849.61	69.2613	9,849.61	66.374	9,849.61	65.9892	9,849.61	64.8764	9,849.61	64.0932	9,849.61	58.6686	9,849.61	62.5846	9,849.61	59.8809	9,849.61	54.179	9,849.61	60.4386	9,849.61	48.0162	9,849.61	59.4397	9,849.61	55.4953	9,849.61	56.7067	9,849.61	42.9101	9,849.61	57.7483	9,849.61	54.9611	9,849.61	57.2533	9,849.61	41.8449	9,849.61	60.1189	9,849.61	55.5175	9,849.61	50.7531
10,196.8	83.5613	10,196.8	83.4179	10,196.8	83.1432	10,196.8	82.8499	10,196.8	81.4959	10,196.8	80.5378	10,196.8	78.1048	10,196.8	78.3429	10,196.8	78.1529	10,196.8	75.8239	10,196.8	71.1055	10,196.8	73.767	10,196.8	72.9986	10,196.8	69.3295	10,196.8	67.496	10,196.8	65.8403	10,196.8	63.2461	10,196.8	62.0582	10,196.8	61.8226	10,196.8	59.8518	10,196.8	59.2971	10,196.8	58.5693	10,196.8	55.7362	10,196.8	59.1453	10,196.8	41.1452	10,196.8	58.16	10,196.8	51.4051	10,196.8	54.6874	10,196.8	49.5209	10,196.8	57.5302	10,196.8	52.5415	10,196.8	59.7742	10,196.8	31.1197	10,196.8	61.3735	10,196.8	52.9008	10,196.8	52.4239
10,555.7	83.5981	10,555.7	83.7266	10,555.7	83.1018	10,555.7	82.8219	10,555.7	82.7832	10,555.7	80.2628	10,555.7	77.6882	10,555.7	78.825	10,555.7	78.5394	10,555.7	75.4948	10,555.7	73.9707	10,555.7	74.5279	10,555.7	71.0696	10,555.7	68.6059	10,555.7	63.7984	10,555.7	65.6759	10,555.7	63.9307	10,555.7	62.5323	10,555.7	59.0849	10,555.7	56.9504	10,555.7	57.3097	10,555.7	60.7824	10,555.7	50.8323	10,555.7	58.1804	10,555.7	44.4883	10,555.7	54.7044	10,555.7	43.3277	10,555.7	54.4822	10,555.7	51.0557	10,555.7	59.6887	10,555.7	50.9569	10,555.7	60.8331	10,555.7	44.8689	10,555.7	59.0288	10,555.7	49.7832	10,555.7	49.282
10,927.7	83.9261	10,927.7	83.937	10,927.7	83.6102	10,927.7	82.8399	10,927.7	82.8397	10,927.7	80.4129	10,927.7	79.7903	10,927.7	79.0764	10,927.7	78.3019	10,927.7	76.0539	10,927.7	77.1935	10,927.7	74.6089	10,927.7	72.288	10,927.7	68.7795	10,927.7	67.7737	10,927.7	67.3671	10,927.7	67.7041	10,927.7	62.6799	10,927.7	61.1375	10,927.7	59.0716	10,927.7	61.5728	10,927.7	59.0614	10,927.7	52.2231	10,927.7	58.0453	10,927.7	51.3231	10,927.7	54.5105	10,927.7	51.6521	10,927.7	55.3637	10,927.7	53.8323	10,927.7	58.726	10,927.7	48.1188	10,927.7	61.1687	10,927.7	46.5957	10,927.7	59.8941	10,927.7	48.4622	10,927.7	53.8042
11,313	83.8971	11,313	84.4559	11,313	83.8572	11,313	82.8464	11,313	83.5718	11,313	80.3615	11,313	81.4209	11,313	79.0014	11,313	78.3616	11,313	76.4724	11,313	78.7644	11,313	73.7453	11,313	71.2972	11,313	70.1714	11,313	68.359	11,313	66.1832	11,313	67.356	11,313	62.0834	11,313	64.4667	11,313	60.6412	11,313	63.5566	11,313	58.6546	11,313	55.1377	11,313	56.4167	11,313	52.9194	11,313	55.3098	11,313	51.4474	11,313	57.7965	11,313	53.779	11,313	57.0293	11,313	45.5153	11,313	60.0401	11,313	48.0983	11,313	56.4924	11,313	51.0252	11,313	50.9353
11,712.9	83.8699	11,712.9	84.122	11,712.9	82.909	11,712.9	82.2001	11,712.9	81.9985	11,712.9	80.802	11,712.9	82.5421	11,712.9	78.555	11,712.9	77.0522	11,712.9	75.5934	11,712.9	78.2912	11,712.9	74.1486	11,712.9	72.3033	11,712.9	68.7902	11,712.9	64.0039	11,712.9	65.2979	11,712.9	66.7341	11,712.9	60.5113	11,712.9	61.4459	11,712.9	57.77	11,712.9	63.104	11,712.9	56.0367	11,712.9	54.3493	11,712.9	56.1775	11,712.9	49.8382	11,712.9	58.2026	11,712.9	43.8246	11,712.9	58.2921	11,712.9	53.4896	11,712.9	57.6454	11,712.9	37.7561	11,712.9	57.0572	11,712.9	48.6157	11,712.9	50.0154	11,712.9	47.3612	11,712.9	51.841
12,126	83.7426	12,126	83.9855	12,126	83.6391	12,126	82.2518	12,126	81.9121	12,126	80.6212	12,126	82.1131	12,126	77.6499	12,126	75.6133	12,126	74.8153	12,126	76.3165	12,126	72.8215	12,126	70.8248	12,126	68.3727	12,126	60.3933	12,126	63.3241	12,126	66.4401	12,126	60.3302	12,126	57.9772	12,126	56.5656	12,126	60.5145	12,126	54.1797	12,126	53.0942	12,126	54.7722	12,126	46.0836	12,126	55.6445	12,126	50.3813	12,126	55.6754	12,126	54.0431	12,126	54.8731	12,126	39.2926	12,126	54.9647	12,126	48.9769	12,126	44.0042	12,126	42.5016	12,126	49.271
12,553.7	84.1747	12,553.7	83.7096	12,553.7	83.4967	12,553.7	82.6072	12,553.7	81.6264	12,553.7	79.7535	12,553.7	80.6896	12,553.7	77.1588	12,553.7	74.9152	12,553.7	73.2792	12,553.7	74.1055	12,553.7	71.5193	12,553.7	70.5869	12,553.7	65.8344	12,553.7	62.2393	12,553.7	58.9744	12,553.7	64.2308	12,553.7	58.0622	12,553.7	53.2795	12,553.7	52.5547	12,553.7	54.5863	12,553.7	52.8078	12,553.7	46.0416	12,553.7	51.1234	12,553.7	46.1068	12,553.7	51.7669	12,553.7	40.9593	12,553.7	51.9375	12,553.7	47.7979	12,553.7	51.9984	12,553.7	46.0365	12,553.7	51.4342	12,553.7	44.8073	12,553.7	47.6482	12,553.7	32.6464	12,553.7	35.5177
12,996.1	84.138	12,996.1	83.6793	12,996.1	83.9733	12,996.1	82.6191	12,996.1	82.1121	12,996.1	79.6705	12,996.1	79.1899	12,996.1	76.5027	12,996.1	75.403	12,996.1	72.1803	12,996.1	71.231	12,996.1	69.6429	12,996.1	68.3849	12,996.1	62.5855	12,996.1	62.5846	12,996.1	58.2844	12,996.1	60.9338	12,996.1	54.4019	12,996.1	56.8708	12,996.1	43.1871	12,996.1	52.8764	12,996.1	51.2305	12,996.1	43.4403	12,996.1	48.4471	12,996.1	44.1984	12,996.1	46.3602	12,996.1	35.042	12,996.1	47.8501	12,996.1	28.8498	12,996.1	47.6597	12,996.1	46.1133	12,996.1	47.8274	12,996.1	44.477	12,996.1	45.0387	12,996.1	27.5792	12,996.1	38.4994
13,454.6	84.2138	13,454.6	83.8924	13,454.6	83.9051	13,454.6	82.6269	13,454.6	81.8954	13,454.6	79.5767	13,454.6	78.4386	13,454.6	75.531	13,454.6	75.0558	13,454.6	71.078	13,454.6	69.757	13,454.6	67.2963	13,454.6	66.2989	13,454.6	60.4869	13,454.6	58.0551	13,454.6	54.1658	13,454.6	50.9708	13,454.6	49.5046	13,454.6	48.5332	13,454.6	45.2462	13,454.6	48.5599	13,454.6	42.4596	13,454.6	34.03	13,454.6	42.8889	13,454.6	32.0541	13,454.6	46.1361	13,454.6	40.7042	13,454.6	42.2072	13,454.6	39.5821	13,454.6	44.2471	13,454.6	43.8396	13,454.6	42.0479	13,454.6	36.9155	13,454.6	38.9216	13,454.6	36.5684	13,454.6	34.4668
13,929.2	84.4716	13,929.2	83.9699	13,929.2	83.7833	13,929.2	82.2109	13,929.2	81.4899	13,929.2	79.1603	13,929.2	77.9302	13,929.2	74.4492	13,929.2	74.0584	13,929.2	69.0163	13,929.2	67.8597	13,929.2	64.238	13,929.2	63.8634	13,929.2	57.138	13,929.2	57.0663	13,929.2	52.4389	13,929.2	50.1991	13,929.2	49.7673	13,929.2	50.188	13,929.2	42.661	13,929.2	47.4518	13,929.2	42.2556	13,929.2	43.311	13,929.2	41.0808	13,929.2	38.3361	13,929.2	42.4068	13,929.2	36.3542	13,929.2	36.3939	13,929.2	39.2701	13,929.2	42.0527	13,929.2	39.2501	13,929.2	37.3813	13,929.2	40.5839	13,929.2	34.7638	13,929.2	29.0864	13,929.2	38.8593
14,419.9	84.4923	14,419.9	83.7842	14,419.9	83.6547	14,419.9	81.6293	14,419.9	81.8162	14,419.9	78.1247	14,419.9	78.2324	14,419.9	73.0528	14,419.9	71.4707	14,419.9	65.6943	14,419.9	64.1083	14,419.9	61.0238	14,419.9	61.3227	14,419.9	57.2101	14,419.9	57.1367	14,419.9	51.9745	14,419.9	50.6728	14,419.9	47.2655	14,419.9	49.1277	14,419.9	43.5749	14,419.9	46.7494	14,419.9	37.8426	14,419.9	42.0171	14,419.9	43.5464	14,419.9	33.629	14,419.9	42.4978	14,419.9	36.8014	14,419.9	42.2196	14,419.9	37.5367	14,419.9	42.9536	14,419.9	40.6555	14,419.9	32.8329	14,419.9	37.5801	14,419.9	37.0551	14,419.9	35.8094	14,419.9	39.9408
14,928.2	84.572	14,928.2	83.6591	14,928.2	83.6522	14,928.2	81.0922	14,928.2	81.1292	14,928.2	77.2196	14,928.2	77.9197	14,928.2	70.9998	14,928.2	68.8995	14,928.2	62.3306	14,928.2	61.3075	14,928.2	58.9403	14,928.2	56.9523	14,928.2	57.2592	14,928.2	57.8843	14,928.2	54.2992	14,928.2	52.8931	14,928.2	49.8239	14,928.2	51.077	14,928.2	48.242	14,928.2	51.1641	14,928.2	40.5105	14,928.2	41.6729	14,928.2	45.4795	14,928.2	13.8767	14,928.2	46.5795	14,928.2	38.6338	14,928.2	44.683	14,928.2	39.141	14,928.2	41.1498	14,928.2	38.0791	14,928.2	40.5268	14,928.2	35.7937	14,928.2	38.0614	14,928.2	36.685	14,928.2	34.9875
15,455.6	84.7301	15,455.6	83.8295	15,455.6	84.0964	15,455.6	81.1419	15,455.6	81.1849	15,455.6	76.3232	15,455.6	77.3579	15,455.6	69.6277	15,455.6	68.3934	15,455.6	61.0516	15,455.6	58.0285	15,455.6	60.4519	15,455.6	55.7853	15,455.6	59.9109	15,455.6	60.1284	15,455.6	55.2865	15,455.6	52.2605	15,455.6	51.3089	15,455.6	48.3193	15,455.6	48.7983	15,455.6	54.6163	15,455.6	44.8966	15,455.6	47.703	15,455.6	45.6827	15,455.6	41.8866	15,455.6	47.9723	15,455.6	25.3558	15,455.6	43.8549	15,455.6	32.6994	15,455.6	44.2929	15,455.6	38.521	15,455.6	41.0412	15,455.6	31.8211	15,455.6	43.2245	15,455.6	39.2599	15,455.6	37.2225
16,000.5	84.8053	16,000.5	83.9391	16,000.5	84.2577	16,000.5	80.8554	16,000.5	81.4182	16,000.5	75.018	16,000.5	76.4055	16,000.5	66.9752	16,000.5	66.5289	16,000.5	61.5242	16,000.5	51.5434	16,000.5	64.2746	16,000.5	54.9184	16,000.5	62.4756	16,000.5	58.831	16,000.5	58.9921	16,000.5	55.0521	16,000.5	53.3029	16,000.5	49.9131	16,000.5	50.385	16,000.5	52.4479	16,000.5	46.7649	16,000.5	42.5454	16,000.5	48.7982	16,000.5	29.1075	16,000.5	52.1608	16,000.5	36.8481	16,000.5	48.8728	16,000.5	38.9351	16,000.5	48.6568	16,000.5	36.3252	16,000.5	46.8597	16,000.5	35.6226	16,000.5	47.6126	16,000.5	39.7435	16,000.5	41.0153
16,564.5	84.6475	16,564.5	83.7827	16,564.5	84.2056	16,564.5	80.3185	16,564.5	80.7696	16,564.5	73.2814	16,564.5	75.8737	16,564.5	63.1399	16,564.5	65.9603	16,564.5	63.6195	16,564.5	56.4316	16,564.5	66.0905	16,564.5	56.993	16,564.5	62.9517	16,564.5	60.6782	16,564.5	58.5311	16,564.5	53.387	16,564.5	54.0218	16,564.5	47.1635	16,564.5	48.8523	16,564.5	54.6797	16,564.5	49.1016	16,564.5	43.6799	16,564.5	49.6947	16,564.5	34.676	16,564.5	53.5358	16,564.5	36.0206	16,564.5	49.7452	16,564.5	37.8609	16,564.5	48.3292	16,564.5	36.3192	16,564.5	48.6235	16,564.5	45.479	16,564.5	48.1371	16,564.5	46.4699	16,564.5	41.8182
17,148.9	84.8854	17,148.9	83.7148	17,148.9	84.0211	17,148.9	79.9689	17,148.9	80.1384	17,148.9	71.4954	17,148.9	74.8718	17,148.9	56.3959	17,148.9	63.5412	17,148.9	65.1022	17,148.9	61.3353	17,148.9	66.2676	17,148.9	64.2697	17,148.9	62.8721	17,148.9	61.6706	17,148.9	58.9632	17,148.9	50.9921	17,148.9	54.0169	17,148.9	44.2654	17,148.9	49.5174	17,148.9	56.0096	17,148.9	50.3332	17,148.9	45.5192	17,148.9	50.6997	17,148.9	32.8174	17,148.9	53.7167	17,148.9	42.6584	17,148.9	49.4888	17,148.9	38.8677	17,148.9	47.6576	17,148.9	42.777	17,148.9	49.0571	17,148.9	47.4741	17,148.9	47.7476	17,148.9	49.3806	17,148.9	41.6475
17,752.4	84.8673	17,752.4	83.8317	17,752.4	83.8546	17,752.4	79.4282	17,752.4	79.4078	17,752.4	70.333	17,752.4	72.8619	17,752.4	54.4091	17,752.4	62.7302	17,752.4	65.745	17,752.4	65.0177	17,752.4	65.8352	17,752.4	65.6328	17,752.4	63.2979	17,752.4	62.7302	17,752.4	60.7354	17,752.4	56.5524	17,752.4	55.0925	17,752.4	48.3553	17,752.4	50.4468	17,752.4	58.1779	17,752.4	51.6583	17,752.4	50.9031	17,752.4	51.3282	17,752.4	35.2426	17,752.4	53.4125	17,752.4	40.7644	17,752.4	49.1716	17,752.4	40.8762	17,752.4	45.6703	17,752.4	41.0603	17,752.4	47.9861	17,752.4	49.6419	17,752.4	45.4567	17,752.4	48.4554	17,752.4	41.1911
18,379.4	84.9298	18,379.4	83.6865	18,379.4	83.2768	18,379.4	78.9414	18,379.4	78.2869	18,379.4	68.2727	18,379.4	70.5146	18,379.4	59.3291	18,379.4	63.2048	18,379.4	65.0629	18,379.4	65.4434	18,379.4	66.542	18,379.4	63.6875	18,379.4	63.2316	18,379.4	60.944	18,379.4	60.2118	18,379.4	54.1734	18,379.4	53.9857	18,379.4	47.4644	18,379.4	48.4807	18,379.4	59.2276	18,379.4	51.8178	18,379.4	51.3818	18,379.4	51.5437	18,379.4	35.4378	18,379.4	52.9564	18,379.4	36.0144	18,379.4	47.7994	18,379.4	39.1312	18,379.4	46.5566	18,379.4	39.207	18,379.4	44.1732	18,379.4	48.5742	18,379.4	44.8932	18,379.4	48.0243	18,379.4	42.0804
19,026.9	84.7816	19,026.9	83.3604	19,026.9	82.6943	19,026.9	78.6291	19,026.9	76.7284	19,026.9	64.1956	19,026.9	65.9902	19,026.9	62.497	19,026.9	64.5695	19,026.9	65.1841	19,026.9	65.9512	19,026.9	67.6858	19,026.9	63.9832	19,026.9	61.9382	19,026.9	60.3072	19,026.9	59.5266	19,026.9	43.85	19,026.9	52.4247	19,026.9	41.8005	19,026.9	47.2178	19,026.9	60.0101	19,026.9	51.9987	19,026.9	52.4299	19,026.9	51.6199	19,026.9	36.9899	19,026.9	52.7576	19,026.9	43.7425	19,026.9	45.3803	19,026.9	44.725	19,026.9	46.2576	19,026.9	39.9637	19,026.9	41.0333	19,026.9	46.4316	19,026.9	45.2416	19,026.9	47.6181	19,026.9	41.6086
19,697.8	83.9777	19,697.8	82.2971	19,697.8	82.0176	19,697.8	77.671	19,697.8	75.3958	19,697.8	63.5637	19,697.8	61.9054	19,697.8	63.7636	19,697.8	65.8219	19,697.8	67.3	19,697.8	66.4971	19,697.8	67.8169	19,697.8	64.8721	19,697.8	61.1049	19,697.8	56.3796	19,697.8	58.342	19,697.8	49.2435	19,697.8	51.222	19,697.8	45.7731	19,697.8	43.5751	19,697.8	60.5733	19,697.8	51.8306	19,697.8	52.8068	19,697.8	52.3491	19,697.8	37.7118	19,697.8	47.1814	19,697.8	43.7267	19,697.8	41.788	19,697.8	43.2226	19,697.8	45.3226	19,697.8	36.2082	19,697.8	39.7929	19,697.8	45.6326	19,697.8	42.1004	19,697.8	45.7536	19,697.8	42.0912
19,999.5	83.3616	19,999.5	82.0442	19,999.5	81.11	19,999.5	77.5197	19,999.5	74.3853	19,999.5	61.6734	19,999.5	63.9212	19,999.5	66.2935	19,999.5	64.2228	19,999.5	69.4025	19,999.5	67.7278	19,999.5	67.7392	19,999.5	66.441	19,999.5	61.4664	19,999.5	57.8234	19,999.5	57.483	19,999.5	54.21	19,999.5	48.4338	19,999.5	37.5833	19,999.5	41.5352	19,999.5	60.2591	19,999.5	55.5338	19,999.5	52.3288	19,999.5	50.1642	19,999.5	40.1494	19,999.5	51.3817	19,999.5	43.1589	19,999.5	38.3159	19,999.5	40.6751	19,999.5	43.3073	19,999.5	46.028	19,999.5	43.2764	19,999.5	49.1878	19,999.5	45.404	19,999.5	52.0192	19,999.5	41.4686
