"Vertical Reflections"					
"Floor Reflection"		"Ceiling Reflection"		"Total Vertical Reflection"	
"Frequency [Hz]"	"Sound Pessure Level [dB]  / [2.83V 1m] "	"Frequency [Hz]"	"Sound Pessure Level [dB]  / [2.83V 1m] "	"Frequency [Hz]"	"Sound Pessure Level [dB]  / [2.83V 1m] "
20.5078	53.2197	20.5078	52.2186	20.5078	52.7479
21.9727	56.2281	21.9727	55.5496	21.9727	55.9021
23.4375	55.9269	23.4375	55.3078	23.4375	55.6284
24.9023	56.4808	24.9023	55.7105	24.9023	56.1127
26.3672	57.1037	26.3672	56.4278	26.3672	56.7789
27.832	58.0188	27.832	57.3939	27.832	57.7176
29.2969	59.0858	29.2969	58.3183	29.2969	58.719
30.7617	59.8448	30.7617	59.21	30.7617	59.539
32.2266	60.4699	32.2266	59.7663	32.2266	60.1323
33.6914	61.2992	33.6914	60.6168	33.6914	60.9714
35.1562	62.2144	35.1562	61.551	35.1562	61.8954
36.6211	62.7887	36.6211	62.0655	36.6211	62.4421
38.0859	63.7968	38.0859	63.1131	38.0859	63.4684
39.5508	64.3799	39.5508	63.6689	39.5508	64.0389
41.0156	63.3689	41.0156	62.57	41.0156	62.9878
42.4805	64.6606	42.4805	63.9786	42.4805	64.333
43.9453	65.459	43.9453	64.7742	43.9453	65.1301
45.4102	66.1363	45.4102	65.4092	45.4102	65.7879
46.875	66.7417	46.875	66.0761	46.875	66.4216
48.3398	67.2918	48.3398	66.6587	48.3398	66.9868
51.2695	68.4018	51.2695	67.7394	51.2695	68.0832
52.7344	68.8672	52.7344	68.2015	52.7344	68.5471
54.1992	69.3415	54.1992	68.6757	54.1992	69.0213
55.6641	69.9055	55.6641	69.2306	55.6641	69.5811
58.5938	70.7901	58.5938	70.1119	58.5938	70.4642
60.0586	71.2684	60.0586	70.5918	60.0586	70.9433
62.9883	72.119	62.9883	71.4308	62.9883	71.7885
64.4531	72.5606	64.4531	71.8567	64.4531	72.2229
67.3828	73.4172	67.3828	72.6806	67.3828	73.0645
68.8477	73.7887	68.8477	73.0859	68.8477	73.4515
71.7773	74.5666	71.7773	73.8638	71.7773	74.2294
74.707	75.3462	74.707	74.6618	74.707	75.0174
77.6367	76.0508	77.6367	75.3699	77.6367	75.7237
79.1016	76.4087	79.1016	75.7183	79.1016	76.0772
82.0312	77.1223	82.0312	76.4134	82.0312	76.7823
84.9609	77.795	84.9609	77.0646	84.9609	77.4451
87.8906	78.2067	87.8906	77.5341	87.8906	77.8834
90.8203	78.8861	90.8203	78.1948	90.8203	78.5542
95.2148	79.7525	95.2148	79.0558	95.2148	79.4181
98.1445	80.3807	98.1445	79.708	98.1445	80.0574
101.074	80.9579	101.074	80.2867	101.074	80.6353
105.469	81.5331	105.469	80.7458	105.469	81.1573
108.398	82.0331	108.398	81.2275	108.398	81.649
112.793	82.6254	112.793	81.8166	112.793	82.2398
117.188	83.2591	117.188	82.5055	117.188	82.8986
120.117	83.6749	120.117	82.8559	120.117	83.2847
124.512	84.2605	124.512	83.4454	124.512	83.872
128.906	84.6257	128.906	83.9116	128.906	84.2833
133.301	84.755	133.301	84.0095	133.301	84.3982
139.16	85.045	139.16	84.1968	139.16	84.6416
143.555	85.2742	143.555	84.3207	143.555	84.8236
147.949	85.6661	147.949	84.6309	147.949	85.1793
153.809	85.7684	153.809	84.8483	153.809	85.3327
159.668	85.7272	159.668	84.9748	159.668	85.3673
165.527	85.6498	165.527	84.7642	165.527	85.2296
171.387	85.8244	171.387	84.8605	171.387	85.3692
177.246	85.7129	177.246	84.7954	177.246	85.2783
183.105	85.8001	183.105	84.7444	183.105	85.3042
188.965	85.5162	188.965	84.6155	188.965	85.0892
196.289	85.4676	196.289	84.5794	196.289	85.0462
203.613	85.4864	203.613	84.4389	203.613	84.9942
210.938	85.323	210.938	84.3724	210.938	84.8736
218.262	85.0273	218.262	84.2957	218.262	84.6769
225.586	84.7506	225.586	84.0159	225.586	84.3988
232.91	84.6234	232.91	83.6944	232.91	84.1837
241.699	84.7028	241.699	83.3755	241.699	84.0897
250.488	84.75	250.488	83.5038	250.488	84.1714
259.277	84.6999	259.277	83.3664	259.277	84.0841
268.066	84.2368	268.066	82.6803	268.066	83.5279
276.855	84.2244	276.855	82.9417	276.855	83.6302
287.109	83.8042	287.109	82.6232	287.109	83.2537
297.363	83.8673	297.363	82.6334	297.363	83.2941
307.617	83.9379	307.617	82.4273	307.617	83.248
319.336	83.9156	319.336	82.0853	319.336	83.0962
329.59	83.3866	329.59	81.7198	329.59	82.6327
341.309	83.5515	341.309	81.8519	341.309	82.7843
353.027	83.3917	353.027	81.7851	353.027	82.6623
366.211	83.3146	366.211	81.8049	366.211	82.625
379.395	83.678	379.395	81.6595	379.395	82.785
392.578	83.5116	392.578	81.4664	392.578	82.6083
405.762	83.0772	405.762	81.372	405.762	82.3078
420.41	83.3649	420.41	81.5714	420.41	82.5601
435.059	83.291	435.059	81.4417	435.059	82.4641
451.172	83.7093	451.172	81.5235	451.172	82.7525
465.82	83.4482	465.82	81.0729	465.82	82.4209
483.398	83.4663	483.398	81.3898	483.398	82.551
499.512	83.7645	499.512	81.4896	499.512	82.7743
517.09	83.5317	517.09	81.8488	517.09	82.7713
536.133	83.3305	536.133	81.0911	536.133	82.3536
555.176	83.4995	555.176	81.2865	555.176	82.5325
574.219	83.9569	574.219	81.4661	574.219	82.8877
594.727	83.5362	594.727	80.98	594.727	82.4435
615.234	83.9168	615.234	81.2485	615.234	82.7844
637.207	84.0389	637.207	81.377	637.207	82.9088
659.18	83.7423	659.18	81.4042	659.18	82.7287
682.617	84.1756	682.617	81.1122	682.617	82.9086
707.52	84.1704	707.52	81.4988	707.52	83.0368
732.422	83.5662	732.422	81.0563	732.422	82.4901
757.324	83.9868	757.324	80.9669	757.324	82.7342
785.156	84.6671	785.156	82.448	785.156	83.6978
811.523	84.9184	811.523	82.5584	811.523	83.8967
840.82	84.7939	840.82	82.8024	840.82	83.9113
870.117	84.3303	870.117	82.6531	870.117	83.5722
900.879	84.4569	900.879	82.2666	900.879	83.4984
933.105	83.8467	933.105	82.0511	933.105	83.041
965.332	83.8483	965.332	82.2036	965.332	83.1034
1,000.49	83.8573	1,000.49	82.1352	1,000.49	83.0811
1,035.64	83.7569	1,035.64	81.5425	1,035.64	82.7894
1,072.27	83.5832	1,072.27	81.29	1,072.27	82.5862
1,108.89	83.0503	1,108.89	80.8103	1,108.89	82.0731
1,148.44	82.4581	1,148.44	80.902	1,148.44	81.7494
1,189.45	82.652	1,189.45	79.5825	1,189.45	81.3829
1,230.47	82.0875	1,230.47	79.5714	1,230.47	81.0092
1,274.41	82.7268	1,274.41	79.7857	1,274.41	81.5006
1,319.82	82.9551	1,319.82	80.9835	1,319.82	82.0803
1,366.7	82.9872	1,366.7	80.5184	1,366.7	81.9259
1,413.57	83.0966	1,413.57	80.3145	1,413.57	81.9246
1,463.38	82.8668	1,463.38	79.5086	1,463.38	81.5045
1,516.11	82.6852	1,516.11	79.8882	1,516.11	81.5081
1,568.85	81.4717	1,568.85	78.0869	1,568.85	80.101
1,624.51	80.7242	1,624.51	77.7255	1,624.51	79.4786
1,681.64	80.3558	1,681.64	76.4215	1,681.64	78.8197
1,741.7	79.9125	1,741.7	74.6302	1,741.7	78.0294
1,803.22	79.9064	1,803.22	71.6131	1,803.22	77.496
1,866.21	79.6688	1,866.21	70.5611	1,866.21	77.1616
1,932.13	78.7127	1,932.13	67.7578	1,932.13	76.0377
1,999.51	77.1762	1,999.51	68.7035	1,999.51	74.7431
2,069.82	76.8597	2,069.82	66.8661	2,069.82	74.2639
2,143.07	77.3037	2,143.07	62.9124	2,143.07	74.4485
2,219.24	77.1149	2,219.24	65.236	2,219.24	74.3776
2,296.88	76.111	2,296.88	68.6233	2,296.88	73.8134
2,378.91	72.7269	2,378.91	69.6495	2,378.91	71.4552
2,462.4	74.1803	2,462.4	69.1019	2,462.4	72.3446
2,548.83	75.7413	2,548.83	70.0971	2,548.83	73.7781
2,639.65	77.4624	2,639.65	72.2766	2,639.65	75.6015
2,731.93	78.1199	2,731.93	74.4553	2,731.93	76.6632
2,828.61	78.4261	2,828.61	74.9803	2,828.61	77.0364
2,928.22	78.6413	2,928.22	75.4728	2,928.22	77.3399
3,030.76	78.592	3,030.76	76.0318	3,030.76	77.4979
3,137.7	78.5715	3,137.7	78.1052	3,137.7	78.3446
3,249.02	78.5777	3,249.02	78.6729	3,249.02	78.6255
3,363.28	78.9347	3,363.28	78.4578	3,363.28	78.7028
3,481.93	79.8322	3,481.93	78.6948	3,481.93	79.3007
3,604.98	80.2039	3,604.98	78.6709	3,604.98	79.5047
3,732.42	80.2417	3,732.42	78.964	3,732.42	79.6496
3,864.26	80.9257	3,864.26	79.9861	3,864.26	80.4813
4,000.49	79.9172	4,000.49	80.814	4,000.49	80.3887
4,141.11	80.2198	4,141.11	80.8859	4,141.11	80.5657
4,287.6	80.0067	4,287.6	81.6909	4,287.6	80.9299
4,438.48	80.4143	4,438.48	81.2445	4,438.48	80.8492
4,595.21	80.9402	4,595.21	79.4436	4,595.21	80.2561
4,756.35	80.6652	4,756.35	80.6285	4,756.35	80.6469
4,924.8	81.7396	4,924.8	79.5353	4,924.8	80.7758
5,097.66	82.2913	5,097.66	79.9056	5,097.66	81.2602
5,277.83	82.6673	5,277.83	80.0039	5,277.83	81.5367
5,463.87	82.4147	5,463.87	79.5819	5,463.87	81.2253
5,657.23	81.9987	5,657.23	79.701	5,657.23	81
5,856.45	80.2142	5,856.45	80.3569	5,856.45	80.2861
6,062.99	81.8688	6,062.99	80.6063	6,062.99	81.2832
6,276.86	83.4056	6,276.86	81.0657	6,276.86	82.3913
6,498.05	83.3138	6,498.05	80.0453	6,498.05	81.98
6,726.56	82.0529	6,726.56	79.7836	6,726.56	81.0648
6,963.87	81.8739	6,963.87	79.0148	6,963.87	80.6755
7,209.96	82.1505	7,209.96	79.0615	7,209.96	80.875
7,464.84	82.3745	7,464.84	79.241	7,464.84	81.0844
7,727.05	81.9331	7,727.05	79.0197	7,727.05	80.7162
7,999.51	81.6624	7,999.51	79.001	7,999.51	80.5325
8,282.23	81.1409	8,282.23	78.5283	8,282.23	80.0282
8,573.73	81.8064	8,573.73	78.24	8,573.73	80.3794
8,876.95	82.1813	8,876.95	77.8325	8,876.95	80.5299
9,188.96	81.3778	9,188.96	77.2683	9,188.96	79.792
9,514.16	80.1833	9,514.16	77.1312	9,514.16	78.92
9,849.61	79.347	9,849.61	76.7287	9,849.61	78.2323
10,196.8	79.5603	10,196.8	76.3787	10,196.8	78.2546
10,555.7	80.2799	10,555.7	76.6931	10,555.7	78.8468
10,927.7	80.7338	10,927.7	76.9912	10,927.7	79.2537
11,313	81.6125	11,313	76.9176	11,313	79.8708
11,712.9	81.1251	11,712.9	76.498	11,712.9	79.4007
12,126	80.7238	12,126	75.5495	12,126	78.8655
12,553.7	79.907	12,553.7	74.6464	12,553.7	78.0288
12,996.1	79.7052	12,996.1	73.7062	12,996.1	77.6684
13,454.6	79.3205	13,454.6	72.5462	13,454.6	77.1387
13,929.2	78.8172	13,929.2	71.0815	13,929.2	76.4829
14,419.9	78.8933	14,419.9	69.2381	14,419.9	76.3295
14,928.2	78.2259	14,928.2	67.0135	14,928.2	75.5323
15,455.6	78.0776	15,455.6	65.8591	15,455.6	75.3203
16,000.5	77.943	16,000.5	64.8094	16,000.5	75.1388
16,564.5	77.324	16,564.5	64.4854	16,564.5	74.5339
17,148.9	76.5706	17,148.9	64.2094	17,148.9	73.8054
17,752.4	75.5813	17,752.4	64.1846	17,752.4	72.875
18,379.4	74.3004	18,379.4	64.5614	18,379.4	71.7284
19,026.9	72.546	19,026.9	65.6211	19,026.9	70.3384
19,697.8	71.2507	19,697.8	66.627	19,697.8	69.5272
19,999.5	70.3556	19,999.5	67.997	19,999.5	69.3345
