"Horizontal Reflections"							
"Front"		"Side"		"Rear"		"Total Horizontal Reflection"	
"Frequency [Hz]"	"Sound Pessure Level [dB]  / [2.83V 1m] "	"Frequency [Hz]"	"Sound Pessure Level [dB]  / [2.83V 1m] "	"Frequency [Hz]"	"Sound Pessure Level [dB]  / [2.83V 1m] "	"Frequency [Hz]"	"Sound Pessure Level [dB]  / [2.83V 1m] "
20.5078	37.6787	20.5078	38.3546	20.5078	38.4823	20.5078	38.301
21.9727	41.7067	21.9727	42.0313	21.9727	42.1836	21.9727	42.0522
23.4375	46.3866	23.4375	46.4424	23.4375	46.6443	23.4375	46.5396
24.9023	48.0067	24.9023	48.0403	24.9023	48.1259	24.9023	48.0793
26.3672	49.0537	26.3672	49.0255	26.3672	48.7903	26.3672	48.9086
27.832	52.007	27.832	51.9774	27.832	51.8478	27.832	51.9153
29.2969	53.0288	29.2969	53.0394	29.2969	53.0857	29.2969	53.0619
30.7617	53.8443	30.7617	53.8154	30.7617	53.6405	30.7617	53.7297
32.2266	56.1028	32.2266	55.9282	32.2266	55.4839	32.2266	55.7358
33.6914	57.7563	33.6914	57.6324	33.6914	57.2528	33.6914	57.4617
35.1562	59.2034	35.1562	59.094	35.1562	58.7376	35.1562	58.9319
36.6211	60.9466	36.6211	60.7915	36.6211	60.2857	36.6211	60.5644
38.0859	61.5202	38.0859	61.4832	38.0859	61.2856	38.0859	61.3874
39.5508	63.0748	39.5508	62.99	39.5508	62.7334	39.5508	62.8736
41.0156	63.961	41.0156	63.9593	41.0156	63.9261	41.0156	63.9421
42.4805	65.0905	42.4805	64.9111	42.4805	64.3418	42.4805	64.6579
43.9453	66.0433	43.9453	65.8765	43.9453	65.4526	43.9453	65.6926
45.4102	67.0243	45.4102	66.8837	45.4102	66.5472	45.4102	66.7382
46.875	67.9408	46.875	67.8093	46.875	67.5129	46.875	67.6822
48.3398	68.5919	48.3398	68.5059	48.3398	68.3054	48.3398	68.4185
51.2695	69.9365	51.2695	69.7939	51.2695	69.4482	51.2695	69.6442
52.7344	70.5825	52.7344	70.4295	52.7344	70.0599	52.7344	70.2699
54.1992	71.0415	54.1992	70.9064	54.1992	70.5928	54.1992	70.7713
55.6641	71.499	55.6641	71.3664	55.6641	71.0704	55.6641	71.2397
58.5938	72.2902	58.5938	72.1415	58.5938	71.8092	58.5938	71.9998
60.0586	72.6787	60.0586	72.5368	60.0586	72.2243	60.0586	72.4037
62.9883	73.4394	62.9883	73.2948	62.9883	72.9881	62.9883	73.1652
64.4531	73.7422	64.4531	73.5954	64.4531	73.2884	64.4531	73.4661
67.3828	74.2405	67.3828	74.0923	67.3828	73.7841	67.3828	73.9627
68.8477	74.4353	68.8477	74.2851	68.8477	73.9858	68.8477	74.1604
71.7773	75.0407	71.7773	74.8776	71.7773	74.5511	71.7773	74.7418
74.707	75.6513	74.707	75.4829	74.707	75.1429	74.707	75.3414
77.6367	75.9242	77.6367	75.7592	77.6367	75.4391	77.6367	75.6271
79.1016	76.0896	79.1016	75.9225	79.1016	75.601	79.1016	75.7901
82.0312	76.7321	82.0312	76.5453	82.0312	76.1736	82.0312	76.3917
84.9609	77.1034	84.9609	76.9261	84.9609	76.5384	84.9609	76.7625
87.8906	77.0512	87.8906	76.9297	87.8906	76.783	87.8906	76.8772
90.8203	77.7527	90.8203	77.5794	90.8203	77.3288	90.8203	77.4843
95.2148	78.2812	95.2148	78.0981	95.2148	77.783	95.2148	77.9723
98.1445	78.6113	98.1445	78.4232	98.1445	78.1717	98.1445	78.3306
101.074	79.0216	101.074	78.7667	101.074	78.3404	101.074	78.6003
105.469	79.3443	105.469	79.1397	105.469	78.8317	105.469	79.0219
108.398	79.6745	108.398	79.4477	108.398	79.0813	108.398	79.3052
112.793	80.025	112.793	79.8113	112.793	79.4695	112.793	79.6784
117.188	80.4994	117.188	80.2373	117.188	79.8359	117.188	80.0848
120.117	80.6244	120.117	80.3507	120.117	79.9218	120.117	80.187
124.512	80.8501	124.512	80.5846	124.512	80.2362	124.512	80.4594
128.906	81.0283	128.906	80.7594	128.906	80.3815	128.906	80.6201
133.301	81.269	133.301	80.9595	133.301	80.4859	133.301	80.7815
139.16	81.2126	139.16	80.9737	139.16	80.6974	139.16	80.8792
143.555	81.3685	143.555	81.0522	143.555	80.7338	143.555	80.9529
147.949	81.5699	147.949	81.1992	147.949	80.7668	147.949	81.0548
153.809	81.6019	153.809	81.2245	153.809	80.7376	153.809	81.0548
159.668	81.6253	159.668	81.2914	159.668	80.8408	159.668	81.13
165.527	81.6105	165.527	81.2426	165.527	80.8534	165.527	81.119
171.387	81.5819	171.387	81.1978	171.387	80.798	171.387	81.0725
177.246	81.5138	177.246	81.1178	177.246	80.7022	177.246	80.9873
183.105	81.3689	183.105	80.9457	183.105	80.6183	183.105	80.865
188.965	81.3412	188.965	80.8756	188.965	80.5304	188.965	80.7953
196.289	81.4697	196.289	80.9198	196.289	80.4371	196.289	80.7908
203.613	81.3063	203.613	80.7662	203.613	80.1432	203.613	80.5672
210.938	81.0999	210.938	80.5427	210.938	79.9868	210.938	80.3799
218.262	80.9738	218.262	80.4261	218.262	79.9024	218.262	80.2767
225.586	80.8848	225.586	80.2652	225.586	79.805	225.586	80.1631
232.91	80.8323	232.91	80.1397	232.91	79.5926	232.91	80.0125
241.699	80.6582	241.699	79.9479	241.699	79.2926	241.699	79.7735
250.488	80.5682	250.488	79.7253	250.488	78.9616	250.488	79.5323
259.277	80.5325	259.277	79.7081	259.277	78.9547	259.277	79.5154
268.066	80.3292	268.066	79.3835	268.066	78.5837	268.066	79.1996
276.855	80.1764	276.855	79.3088	276.855	78.3307	276.855	79.0242
287.109	80.2366	287.109	79.3101	287.109	78.3117	287.109	79.0314
297.363	80.0169	297.363	79.0134	297.363	78.0889	297.363	78.7876
307.617	80.0369	307.617	79.0527	307.617	77.9381	307.617	78.7375
319.336	79.7819	319.336	78.5948	319.336	77.6332	319.336	78.4007
329.59	79.7433	329.59	78.6005	329.59	77.1701	329.59	78.1929
341.309	79.5222	341.309	78.2983	341.309	77.1254	341.309	78.0221
353.027	79.5182	353.027	78.1822	353.027	76.761	353.027	77.833
366.211	79.475	366.211	78.1556	366.211	76.5567	366.211	77.7291
379.395	79.5997	379.395	78.25	379.395	76.5806	379.395	77.8042
392.578	79.2262	392.578	77.9163	392.578	76.0231	392.578	77.3709
405.762	79.0698	405.762	77.6801	405.762	75.8749	405.762	77.1926
420.41	79.3551	420.41	77.7377	420.41	75.4529	420.41	77.142
435.059	78.9473	435.059	77.5507	435.059	75.5324	435.059	76.9836
451.172	79.3583	451.172	77.5203	451.172	74.7285	451.172	76.8256
465.82	78.919	465.82	77.242	465.82	74.6478	465.82	76.558
483.398	78.7884	483.398	77.3168	483.398	74.0628	483.398	76.3484
499.512	78.4791	499.512	76.7463	499.512	73.6709	499.512	75.9241
517.09	77.8953	517.09	76.2157	517.09	72.7824	517.09	75.2652
536.133	76.447	536.133	74.8688	536.133	70.8921	536.133	73.7262
555.176	76.7023	555.176	74.9549	555.176	70.2235	555.176	73.6828
574.219	83.8138	574.219	82.1642	574.219	78.3476	574.219	81.092
594.727	84.8264	594.727	83.3361	594.727	79.3319	594.727	82.1541
615.234	83.323	615.234	81.8523	615.234	77.6203	615.234	80.6016
637.207	82.1716	637.207	80.9486	637.207	76.6537	637.207	79.5924
659.18	81.3416	659.18	80.0895	659.18	75.8082	659.18	78.7472
682.617	81.3802	682.617	79.9205	682.617	75.6377	682.617	78.6524
707.52	80.8043	707.52	79.8046	707.52	75.145	707.52	78.2745
732.422	80.7648	732.422	79.5253	732.422	74.5655	732.422	78.0066
757.324	80.5011	757.324	79.531	757.324	74.2059	757.324	77.8289
785.156	80.1027	785.156	79.2007	785.156	74.4452	785.156	77.6122
811.523	80.1645	811.523	79.3935	811.523	74.7522	811.523	77.7899
840.82	80.5909	840.82	79.3308	840.82	74.5925	840.82	77.8735
870.117	80.4135	870.117	79.1366	870.117	74.9532	870.117	77.8296
900.879	81.0248	900.879	79.7241	900.879	74.7162	900.879	78.2165
933.105	81.0039	933.105	79.057	933.105	74.7691	933.105	77.9715
965.332	81.3582	965.332	79.5972	965.332	74.7394	965.332	78.3007
1,000.49	81.8537	1,000.49	79.4587	1,000.49	75.7957	1,000.49	78.7137
1,035.64	81.5442	1,035.64	78.4513	1,035.64	75.8166	1,035.64	78.2824
1,072.27	75.5484	1,072.27	71.0347	1,072.27	69.658	1,072.27	71.8695
1,108.89	75.5892	1,108.89	71.8086	1,108.89	65.4558	1,108.89	71.1756
1,148.44	78.5791	1,148.44	74.7566	1,148.44	68.4505	1,148.44	74.1527
1,189.45	80.3385	1,189.45	76.7552	1,189.45	69.8464	1,189.45	75.9411
1,230.47	81.0351	1,230.47	77.7743	1,230.47	71.5628	1,230.47	76.8914
1,274.41	82.2127	1,274.41	78.6793	1,274.41	72.6769	1,274.41	77.9681
1,319.82	81.3711	1,319.82	77.3722	1,319.82	70.9924	1,319.82	76.8541
1,366.7	79.4882	1,366.7	75.5987	1,366.7	69.2678	1,366.7	75.0276
1,413.57	79.0481	1,413.57	75.7582	1,413.57	67.9376	1,413.57	74.6775
1,463.38	79.3686	1,463.38	76.5585	1,463.38	69.2444	1,463.38	75.2923
1,516.11	83.9277	1,516.11	80.3052	1,516.11	74.0107	1,516.11	79.5964
1,568.85	84.4862	1,568.85	81.0235	1,568.85	73.1005	1,568.85	80.0244
1,624.51	83.2914	1,624.51	79.8299	1,624.51	72.5302	1,624.51	78.9015
1,681.64	82.4551	1,681.64	78.8404	1,681.64	71.6886	1,681.64	78.0124
1,741.7	82.9325	1,741.7	79.1377	1,741.7	71.46	1,741.7	78.348
1,803.22	84.0465	1,803.22	79.384	1,803.22	71.0174	1,803.22	79.0387
1,866.21	83.7559	1,866.21	79.27	1,866.21	71.5228	1,866.21	78.8732
1,932.13	82.2164	1,932.13	77.8932	1,932.13	69.3943	1,932.13	77.3306
1,999.51	81.4801	1,999.51	76.7916	1,999.51	69.5656	1,999.51	76.5691
2,069.82	80.0772	2,069.82	75.0221	2,069.82	67.0227	2,069.82	74.9528
2,143.07	81.3846	2,143.07	75.0639	2,143.07	68.4284	2,143.07	75.9478
2,219.24	81.2225	2,219.24	75.9175	2,219.24	68.1631	2,219.24	76.0286
2,296.88	79.8773	2,296.88	76.3463	2,296.88	67.5667	2,296.88	75.3011
2,378.91	79.4903	2,378.91	75.0781	2,378.91	66.0281	2,378.91	74.5255
2,462.4	80.4269	2,462.4	75.6731	2,462.4	67.2454	2,462.4	75.3792
2,548.83	81.3731	2,548.83	76.7744	2,548.83	67.9151	2,548.83	76.3506
2,639.65	80.377	2,639.65	76.3282	2,639.65	67.7171	2,639.65	75.5936
2,731.93	80.4846	2,731.93	75.9998	2,731.93	66.8707	2,731.93	75.4858
2,828.61	80.9754	2,828.61	76.4023	2,828.61	67.2197	2,828.61	75.939
2,928.22	81.3987	2,928.22	77.1646	2,928.22	67.8546	2,928.22	76.4849
3,030.76	81.8119	3,030.76	77.9516	3,030.76	68.7123	3,030.76	77.0558
3,137.7	82.1334	3,137.7	78.4245	3,137.7	69.1632	3,137.7	77.4396
3,249.02	82.4657	3,249.02	78.5867	3,249.02	69.2732	3,249.02	77.6961
3,363.28	81.3228	3,363.28	77.7671	3,363.28	67.7813	3,363.28	76.6413
3,481.93	80.586	3,481.93	78.1474	3,481.93	68.3718	3,481.93	76.4358
3,604.98	81.438	3,604.98	79.372	3,604.98	69.1483	3,604.98	77.4392
3,732.42	81.1909	3,732.42	79.0073	3,732.42	68.4669	3,732.42	77.1087
3,864.26	80.4467	3,864.26	78.3943	3,864.26	67.8467	3,864.26	76.4304
4,000.49	81.5058	4,000.49	79.1522	4,000.49	67.5967	4,000.49	77.2745
4,141.11	81.4035	4,141.11	78.8598	4,141.11	68.041	4,141.11	77.1255
4,287.6	81.8158	4,287.6	79.1576	4,287.6	67.965	4,287.6	77.4602
4,438.48	81.4977	4,438.48	78.9912	4,438.48	68.1247	4,438.48	77.2344
4,595.21	82.3414	4,595.21	79.5754	4,595.21	68.2507	4,595.21	77.9279
4,756.35	81.2421	4,756.35	78.7384	4,756.35	68.2564	4,756.35	77.0062
4,924.8	81.6662	4,924.8	78.5731	4,924.8	67.2948	4,924.8	77.1068
5,097.66	82.1831	5,097.66	79.2545	5,097.66	68.3344	5,097.66	77.7186
5,277.83	82.5288	5,277.83	79.0418	5,277.83	67.6036	5,277.83	77.7906
5,463.87	82.4381	5,463.87	78.2275	5,463.87	66.8735	5,463.87	77.4136
5,657.23	83.4652	5,657.23	78.54	5,657.23	66.2261	5,657.23	78.1454
5,856.45	83.0585	5,856.45	78.9134	5,856.45	67.5935	5,856.45	78.0607
6,062.99	83.7185	6,062.99	80.1571	6,062.99	68.7494	6,062.99	78.9507
6,276.86	83.4729	6,276.86	80.5198	6,276.86	69.2092	6,276.86	78.9746
6,498.05	83.353	6,498.05	80.9207	6,498.05	69.6334	6,498.05	79.0993
6,726.56	83.2803	6,726.56	81.5123	6,726.56	70.3908	6,726.56	79.3705
6,963.87	82.6669	6,963.87	81.3478	6,963.87	69.9602	6,963.87	78.9789
7,209.96	83.15	7,209.96	81.9947	7,209.96	70.4184	7,209.96	79.5397
7,464.84	82.5996	7,464.84	81.3269	7,464.84	69.7496	7,464.84	78.9246
7,727.05	82.5833	7,727.05	81.3241	7,727.05	69.9058	7,727.05	78.926
7,999.51	82.3353	7,999.51	81.0923	7,999.51	69.6101	7,999.51	78.6827
8,282.23	82.9727	8,282.23	81.3304	8,282.23	70.0025	8,282.23	79.1152
8,573.73	83.254	8,573.73	81.0321	8,573.73	69.8358	8,573.73	79.1086
8,876.95	83.2938	8,876.95	80.4268	8,876.95	69.6478	8,876.95	78.8663
9,188.96	83.8076	9,188.96	80.7318	9,188.96	69.8323	9,188.96	79.2778
9,514.16	83.4113	9,514.16	80.4986	9,514.16	69.1792	9,514.16	78.9308
9,849.61	82.8195	9,849.61	80.7184	9,849.61	68.1595	9,849.61	78.6597
10,196.8	82.6132	10,196.8	80.5001	10,196.8	66.9531	10,196.8	78.4058
10,555.7	82.3217	10,555.7	79.9718	10,555.7	65.9527	10,555.7	77.9839
10,927.7	82.1665	10,927.7	79.6035	10,927.7	65.7105	10,927.7	77.7336
11,313	82.4715	11,313	79.6809	11,313	66.2978	11,313	77.9527
11,712.9	82.8621	11,712.9	80.0733	11,712.9	66.7076	11,712.9	78.3447
12,126	82.9681	12,126	80.1745	12,126	66.459	12,126	78.4363
12,553.7	82.9071	12,553.7	80.1408	12,553.7	66.0347	12,553.7	78.375
12,996.1	82.8187	12,996.1	79.9744	12,996.1	65.5955	12,996.1	78.2438
13,454.6	82.6867	13,454.6	79.6713	13,454.6	65.3012	13,454.6	78.0372
13,929.2	82.4797	13,929.2	79.3271	13,929.2	65.0561	13,929.2	77.7741
14,419.9	82.4589	14,419.9	79.101	14,419.9	64.8773	14,419.9	77.6685
14,928.2	82.7132	14,928.2	79.1812	14,928.2	64.7117	14,928.2	77.845
15,455.6	82.6776	15,455.6	78.9632	15,455.6	64.3685	15,455.6	77.7336
16,000.5	82.5719	16,000.5	78.6528	16,000.5	63.9608	16,000.5	77.5464
16,564.5	82.1537	16,564.5	78.048	16,564.5	63.186	16,564.5	77.0542
17,148.9	81.4697	17,148.9	77.273	17,148.9	62.3839	17,148.9	76.3361
17,752.4	80.8809	17,752.4	76.5613	17,752.4	61.6147	17,752.4	75.7015
18,379.4	80.2907	18,379.4	75.8265	18,379.4	60.7453	18,379.4	75.0573
19,026.9	80.0689	19,026.9	75.434	19,026.9	60.1694	19,026.9	74.7729
19,697.8	80.2032	19,697.8	75.3815	19,697.8	60.0386	19,697.8	74.8428
19,999.5	80.2451	19,999.5	75.3677	19,999.5	60.105	19,999.5	74.8677
