"Vertical Reflections"					
"Floor Reflection"		"Ceiling Reflection"		"Total Vertical Reflection"	
"Frequency [Hz]"	"Sound Pessure Level [dB]  / [2.83V 1m] "	"Frequency [Hz]"	"Sound Pessure Level [dB]  / [2.83V 1m] "	"Frequency [Hz]"	"Sound Pessure Level [dB]  / [2.83V 1m] "
20.5078	39.4301	20.5078	36.5718	20.5078	38.2319
21.9727	43.2535	21.9727	39.7106	21.9727	41.8337
23.4375	47.7234	23.4375	44.7031	23.4375	46.4707
24.9023	49.0748	24.9023	46.7251	24.9023	48.0569
26.3672	50.0925	26.3672	47.8093	26.3672	49.0992
27.832	52.8581	27.832	50.9351	27.832	52.0022
29.2969	53.7943	29.2969	52.1458	29.2969	53.0478
30.7617	54.6942	30.7617	52.7988	30.7617	53.8491
32.2266	56.8949	32.2266	55.0154	32.2266	56.0561
33.6914	58.4681	33.6914	56.7633	33.6914	57.6988
35.1562	59.8499	35.1562	58.3204	35.1562	59.1521
36.6211	61.6056	36.6211	59.9726	36.6211	60.8654
38.0859	62.1095	38.0859	60.7267	38.0859	61.4729
39.5508	63.6515	39.5508	62.2687	39.5508	63.0149
41.0156	64.4773	41.0156	63.3217	41.0156	63.9378
42.4805	65.6514	42.4805	64.1694	42.4805	64.9733
43.9453	66.5739	43.9453	65.214	43.9453	65.947
45.4102	67.5103	45.4102	66.2832	45.4102	66.94
46.875	68.4407	46.875	67.1765	46.875	67.8545
48.3398	69.0837	48.3398	67.8642	48.3398	68.5166
51.2695	70.4015	51.2695	69.1848	51.2695	69.8356
52.7344	71.0391	52.7344	69.8386	52.7344	70.4802
54.1992	71.4972	54.1992	70.3115	54.1992	70.9447
55.6641	71.9458	55.6641	70.7811	55.6641	71.4024
58.5938	72.7235	58.5938	71.5732	58.5938	72.1864
60.0586	73.1076	60.0586	71.9719	60.0586	72.5768
62.9883	73.8562	62.9883	72.7385	62.9883	73.3332
64.4531	74.1566	64.4531	73.0411	64.4531	73.6346
67.3828	74.6454	67.3828	73.5458	67.3828	74.1303
68.8477	74.839	68.8477	73.7397	68.8477	74.3241
71.7773	75.4292	71.7773	74.3515	71.7773	74.9237
74.707	76.0263	74.707	74.9764	74.707	75.533
77.6367	76.2928	77.6367	75.254	77.6367	75.8044
79.1016	76.4549	79.1016	75.4202	79.1016	75.9683
82.0312	77.0884	82.0312	76.0558	82.0312	76.6027
84.9609	77.4374	84.9609	76.4491	84.9609	76.9713
87.8906	77.4268	87.8906	76.4053	87.8906	76.946
90.8203	78.0923	90.8203	77.1086	90.8203	77.6283
95.2148	78.5698	95.2148	77.675	95.2148	78.1454
98.1445	78.9006	98.1445	78.0256	98.1445	78.4851
101.074	79.2979	101.074	78.3976	101.074	78.871
105.469	79.6176	105.469	78.7754	105.469	79.2169
108.398	79.954	108.398	79.0888	108.398	79.5429
112.793	80.3076	112.793	79.4421	112.793	79.8964
117.188	80.7846	117.188	79.8826	117.188	80.357
120.117	80.8971	120.117	80.0002	120.117	80.4718
124.512	81.1278	124.512	80.2126	124.512	80.6943
128.906	81.2895	128.906	80.4006	128.906	80.8678
133.301	81.5208	133.301	80.6325	133.301	81.0993
139.16	81.4923	139.16	80.5829	139.16	81.0614
143.555	81.646	143.555	80.7027	143.555	81.1999
147.949	81.8539	147.949	80.872	147.949	81.3907
153.809	81.8722	153.809	80.8798	153.809	81.4043
159.668	81.8915	159.668	80.9125	159.668	81.4295
165.527	81.9001	165.527	80.8248	165.527	81.3957
171.387	81.8794	171.387	80.8535	171.387	81.3967
177.246	81.8071	177.246	80.7263	177.246	81.3002
183.105	81.6457	183.105	80.6016	183.105	81.155
188.965	81.6507	188.965	80.469	188.965	81.0999
196.289	81.7404	196.289	80.5837	196.289	81.2004
203.613	81.5891	203.613	80.379	203.613	81.0261
210.938	81.3653	210.938	80.1671	210.938	80.8074
218.262	81.2359	218.262	80.0572	218.262	80.6864
225.586	81.121	225.586	79.9439	225.586	80.5722
232.91	81.0791	232.91	79.8288	232.91	80.4988
241.699	80.9614	241.699	79.6113	241.699	80.3386
250.488	80.8931	250.488	79.2992	250.488	80.1689
259.277	80.8584	259.277	79.3634	259.277	80.1749
268.066	80.6904	268.066	78.9164	268.066	79.8933
276.855	80.4873	276.855	78.7747	276.855	79.7149
287.109	80.4618	287.109	78.8925	287.109	79.7477
297.363	80.1577	297.363	78.8396	297.363	79.5485
307.617	80.2515	307.617	78.7304	307.617	79.5572
319.336	80.155	319.336	78.2446	319.336	79.304
329.59	79.9557	329.59	78.3522	329.59	79.2275
341.309	79.8269	341.309	78.1385	341.309	79.0642
353.027	79.7683	353.027	77.8426	353.027	78.9113
366.211	79.711	366.211	77.6014	366.211	78.783
379.395	79.8258	379.395	77.9289	379.395	78.9801
392.578	79.5305	392.578	77.4696	392.578	78.6212
405.762	79.2938	405.762	77.1138	405.762	78.3392
420.41	79.4339	420.41	77.448	420.41	78.5535
435.059	79.008	435.059	77.0814	435.059	78.1507
451.172	79.3916	451.172	77.1899	451.172	78.4288
465.82	78.6841	465.82	77.0806	465.82	77.956
483.398	78.7589	483.398	76.679	483.398	77.8423
499.512	78.2509	499.512	76.803	499.512	77.587
517.09	77.3697	517.09	76.7017	517.09	77.0485
536.133	75.4101	536.133	75.6811	536.133	75.5477
555.176	73.8267	555.176	76.9513	555.176	75.6641
574.219	82.6555	574.219	82.3369	574.219	82.4991
594.727	84.5828	594.727	82.4991	594.727	83.6648
615.234	83.0808	615.234	80.1806	615.234	81.8684
637.207	82.3192	637.207	78.9391	637.207	80.95
659.18	81.4631	659.18	78.4153	659.18	80.2012
682.617	81.4224	682.617	77.433	682.617	79.8705
707.52	81.1628	707.52	77.0276	707.52	79.5699
732.422	80.5578	732.422	76.6858	732.422	79.0397
757.324	80.6658	757.324	75.9369	757.324	78.9155
785.156	80.4541	785.156	76.96	785.156	79.0493
811.523	80.4576	811.523	77.7774	811.523	79.321
840.82	80.6923	840.82	78.74	840.82	79.8249
870.117	80.2269	870.117	77.9963	870.117	79.2533
900.879	80.7361	900.879	78.2789	900.879	79.679
933.105	80.5861	933.105	78.1955	933.105	79.5532
965.332	81.1658	965.332	78.78	965.332	80.1347
1,000.49	82.3282	1,000.49	78.3005	1,000.49	80.7655
1,035.64	83.2163	1,035.64	73.8387	1,035.64	80.6803
1,072.27	79.9081	1,072.27	71.5456	1,072.27	77.4889
1,108.89	75.9715	1,108.89	76.5703	1,108.89	76.2812
1,148.44	75.9169	1,148.44	78.2576	1,148.44	77.243
1,189.45	78.1399	1,189.45	77.921	1,189.45	78.0318
1,230.47	77.7018	1,230.47	79.1247	1,230.47	78.4713
1,274.41	80.498	1,274.41	79.0955	1,274.41	79.8531
1,319.82	80.3002	1,319.82	78.842	1,319.82	79.632
1,366.7	79.2075	1,366.7	78.0224	1,366.7	78.6553
1,413.57	77.0566	1,413.57	80.5317	1,413.57	79.1328
1,463.38	74.3486	1,463.38	82.012	1,463.38	79.6883
1,516.11	79.3531	1,516.11	84.2328	1,516.11	82.445
1,568.85	82.8786	1,568.85	82.3022	1,568.85	82.6
1,624.51	82.2584	1,624.51	79.3232	1,624.51	81.0342
1,681.64	82.2052	1,681.64	79.2133	1,681.64	80.9619
1,741.7	82.3305	1,741.7	78.248	1,741.7	80.7523
1,803.22	82.2874	1,803.22	77.8301	1,803.22	80.6071
1,866.21	82.6485	1,866.21	75.3245	1,866.21	80.3761
1,932.13	83.0997	1,932.13	74.6054	1,932.13	80.6639
1,999.51	82.4325	1,999.51	73.5702	1,999.51	79.9528
2,069.82	81.4018	2,069.82	76.5028	2,069.82	79.6093
2,143.07	78.7442	2,143.07	77.0543	2,143.07	77.9809
2,219.24	78.0331	2,219.24	75.1105	2,219.24	76.8131
2,296.88	75.7799	2,296.88	77.0071	2,296.88	76.4367
2,378.91	77.1796	2,378.91	74.5389	2,378.91	76.0569
2,462.4	75.5313	2,462.4	75.8805	2,462.4	75.7094
2,548.83	75.149	2,548.83	75.0385	2,548.83	75.0941
2,639.65	74.9683	2,639.65	74.2972	2,639.65	74.6457
2,731.93	74.5636	2,731.93	73.6112	2,731.93	74.1135
2,828.61	76.4042	2,828.61	72.8907	2,828.61	74.9934
2,928.22	75.8924	2,928.22	73.1732	2,928.22	74.7422
3,030.76	76.1838	3,030.76	72.3036	3,030.76	74.6633
3,137.7	76.0136	3,137.7	73.6677	3,137.7	74.9972
3,249.02	76.0419	3,249.02	72.6083	3,249.02	74.6559
3,363.28	76.188	3,363.28	75.2812	3,363.28	75.7582
3,481.93	75.8169	3,481.93	75.7679	3,481.93	75.7924
3,604.98	75.1943	3,604.98	75.6612	3,604.98	75.434
3,732.42	75.3262	3,732.42	75.7636	3,732.42	75.5504
3,864.26	75.8291	3,864.26	76.3347	3,864.26	76.0892
4,000.49	76.5006	4,000.49	75.1828	4,000.49	75.8915
4,141.11	77.0187	4,141.11	74.6905	4,141.11	76.0088
4,287.6	76.9939	4,287.6	74.898	4,287.6	76.0712
4,438.48	76.3775	4,438.48	74.7205	4,438.48	75.6276
4,595.21	76.0954	4,595.21	73.9197	4,595.21	75.1424
4,756.35	75.9258	4,756.35	72.7514	4,756.35	74.6224
4,924.8	76.6009	4,924.8	71.7138	4,924.8	74.8113
5,097.66	76.789	5,097.66	71.1994	5,097.66	74.8375
5,277.83	76.4634	5,277.83	70.1922	5,277.83	74.3733
5,463.87	76.4357	5,463.87	70.9063	5,463.87	74.4973
5,657.23	76.5018	5,657.23	70.4042	5,657.23	74.4453
5,856.45	76.7803	5,856.45	67.3589	5,856.45	74.2398
6,062.99	77.1453	6,062.99	64.7683	6,062.99	74.3792
6,276.86	77.2268	6,276.86	65.685	6,276.86	74.5108
6,498.05	77.2112	6,498.05	67.3246	6,498.05	74.6252
6,726.56	76.9328	6,726.56	67.2173	6,726.56	74.3631
6,963.87	77.08	6,963.87	66.1507	6,963.87	74.4069
7,209.96	77.231	7,209.96	66.0471	7,209.96	74.5394
7,464.84	76.6482	7,464.84	66.4995	7,464.84	74.0386
7,727.05	75.9241	7,727.05	66.6346	7,727.05	73.3973
7,999.51	75.435	7,999.51	66.2561	7,999.51	72.92
8,282.23	74.4721	8,282.23	66.2076	8,282.23	72.0655
8,573.73	73.671	8,573.73	64.6823	8,573.73	71.177
8,876.95	73.1387	8,876.95	62.997	8,876.95	70.5296
9,188.96	73.0403	9,188.96	62.7295	9,188.96	70.4166
9,514.16	74.119	9,514.16	62.1856	9,514.16	71.3784
9,849.61	75.5821	9,849.61	61.6859	9,849.61	72.7454
10,196.8	75.6708	10,196.8	62.0468	10,196.8	72.8451
10,555.7	75.6795	10,555.7	62.1326	10,555.7	72.857
10,927.7	75.7556	10,927.7	64.1602	10,927.7	73.0361
11,313	74.3973	11,313	65.4251	11,313	71.9051
11,712.9	72.8953	11,712.9	65.6729	11,712.9	70.6388
12,126	70.5753	12,126	65.5824	12,126	68.76
12,553.7	69.6359	12,553.7	65.3379	12,553.7	67.9982
12,996.1	69.0319	12,996.1	64.4593	12,996.1	67.3215
13,454.6	68.1044	13,454.6	63.3877	13,454.6	66.3572
13,929.2	67.6622	13,929.2	62.8038	13,929.2	65.8797
14,419.9	67.4698	14,419.9	62.3391	14,419.9	65.6218
14,928.2	66.2354	14,928.2	61.8679	14,928.2	64.579
15,455.6	65.7555	15,455.6	61.033	15,455.6	64.0069
16,000.5	65.0598	16,000.5	60.132	16,000.5	63.2603
16,564.5	64.5591	16,564.5	58.6472	16,564.5	62.5398
17,148.9	63.8022	17,148.9	56.1772	17,148.9	61.4841
17,752.4	63.0841	17,752.4	54.468	17,752.4	60.6334
18,379.4	61.3808	18,379.4	52.4837	18,379.4	58.8971
19,026.9	60.1222	19,026.9	51.7986	19,026.9	57.708
19,697.8	59.632	19,697.8	50.6029	19,697.8	57.1335
19,999.5	59.8504	19,999.5	50.6574	19,999.5	57.3339
