Freq[Hz]     dBSPL  Phase[Deg]
5.00000     56.845     0.000
5.07273     56.967     0.000
5.14651     57.088     0.000
5.22137     57.210     0.000
5.29732     57.331     0.000
5.37437     57.453     0.000
5.45254     57.574     0.000
5.53185     57.696     0.000
5.61231     57.817     0.000
5.69394     57.939     0.000
5.77676     58.060     0.000
5.86079     58.182     0.000
5.94604     58.303     0.000
6.03252     58.425     0.000
6.12027     58.546     0.000
6.20929     58.668     0.000
6.29961     58.789     0.000
6.39124     58.911     0.000
6.48420     59.032     0.000
6.57851     59.154     0.000
6.67420     59.275     0.000
6.77128     59.397     0.000
6.86977     59.518     0.000
6.96969     59.640     0.000
7.07107     59.761     0.000
7.17392     59.883     0.000
7.27827     60.004     0.000
7.38413     60.126     0.000
7.49154     60.247     0.000
7.60050     60.369     0.000
7.71105     60.490     0.000
7.82321     60.612     0.000
7.93701     60.733     0.000
8.05245     60.855     0.000
8.16958     60.976     0.000
8.28841     61.098     0.000
8.40896     61.219     0.000
8.53128     61.341     0.000
8.65537     61.462     0.000
8.78126     61.584     0.000
8.90899     61.705     0.000
9.03857     61.826     0.000
9.17004     61.948     0.000
9.30342     62.069     0.000
9.43874     62.191     0.000
9.57603     62.312     0.000
9.71532     62.434     0.000
9.85663     62.555     0.000
10.0000     62.677     0.000
10.1455     62.798     0.000
10.2930     62.920     0.000
10.4427     63.041     0.000
10.5946     63.163     0.000
10.7487     63.284     0.000
10.9051     63.406     0.000
11.0637     63.527     0.000
11.2246     63.649     0.000
11.3879     63.770     0.000
11.5535     63.892     0.000
11.7216     64.013     0.000
11.8921     64.135     0.000
12.0650     64.256     0.000
12.2405     64.378     0.000
12.4186     64.499     0.000
12.5992     64.621     0.000
12.7825     64.742     0.000
12.9684     64.864     0.000
13.1570     64.985     0.000
13.3484     65.107     0.000
13.5426     65.228     0.000
13.7395     65.350     0.000
13.9394     65.471     0.000
14.1421     65.593     0.000
14.3478     65.714     0.000
14.5565     65.836     0.000
14.7683     65.957     0.000
14.9831     66.079     0.000
15.2010     66.200     0.000
15.4221     66.322     0.000
15.6464     66.443     0.000
15.8740     66.565     0.000
16.1049     66.686     0.000
16.3392     66.808     0.000
16.5768     66.929     0.000
16.8179     67.051     0.000
17.0626     67.172     0.000
17.3107     67.294     0.000
17.5625     67.415     0.000
17.8180     67.537     0.000
18.0771     67.658     0.000
18.3401     67.780     0.000
18.6068     67.901     0.000
18.8775     68.023     0.000
19.1521     68.144     0.000
19.4306     68.266     0.000
19.7133     68.387     0.000
20.0000     68.509     0.000
20.2909     68.630     0.000
20.5860     68.752     0.000
20.8855     68.848     0.000
21.1893     68.945     0.000
21.4975     69.042     0.000
21.8102     69.139     0.000
22.1274     69.235     0.000
22.4492     69.332     0.000
22.7758     69.429     0.000
23.1071     69.526     0.000
23.4432     69.624     0.000
23.7841     69.789     0.000
24.1301     69.954     0.000
24.4811     70.119     0.000
24.8372     70.284     0.000
25.1984     70.449     0.000
25.5649     70.614     0.000
25.9368     70.779     0.000
26.3141     70.944     0.000
26.6968     71.141     0.000
27.0851     71.342     0.000
27.4791     71.543     0.000
27.8788     71.744     0.000
28.2843     71.945     0.000
28.6957     72.146     0.000
29.1131     72.348     0.000
29.5365     72.559     0.000
29.9661     72.778     0.000
30.4020     72.998     0.000
30.8442     73.217     0.000
31.2929     73.437     0.000
31.7480     73.656     0.000
32.2098     73.876     0.000
32.6783     74.101     0.000
33.1536     74.326     0.000
33.6359     74.551     0.000
34.1251     74.777     0.000
34.6215     75.002     0.000
35.1250     75.227     0.000
35.6359     75.450     0.000
36.1543     75.673     0.000
36.6802     75.895     0.000
37.2137     76.118     0.000
37.7550     76.341     0.000
38.3041     76.585     0.000
38.8613     76.862     0.000
39.4265     77.138     0.000
40.0000     77.415     0.000
40.5818     77.692     0.000
41.1721     77.958     0.000
41.7710     78.193     0.000
42.3785     78.428     0.000
42.9949     78.663     0.000
43.6203     78.898     0.000
44.2548     79.112     0.000
44.8985     79.304     0.000
45.5515     79.496     0.000
46.2141     79.688     0.000
46.8863     79.880     0.000
47.5683     80.028     0.000
48.2602     80.176     0.000
48.9621     80.325     0.000
49.6743     80.473     0.000
50.3968     80.586     0.000
51.1299     80.692     0.000
51.8736     80.798     0.000
52.6281     80.903     0.000
53.3936     80.975     0.000
54.1702     81.042     0.000
54.9581     81.108     0.000
55.7575     81.171     0.000
56.5685     81.204     0.000
57.3914     81.238     0.000
58.2261     81.271     0.000
59.0730     81.292     0.000
59.9323     81.302     0.000
60.8040     81.312     0.000
61.6884     81.320     0.000
62.5857     81.317     0.000
63.4960     81.313     0.000
64.4196     81.310     0.000
65.3566     81.303     0.000
66.3073     81.296     0.000
67.2717     81.289     0.000
68.2502     81.282     0.000
69.2429     81.275     0.000
70.2501     81.268     0.000
71.2719     81.260     0.000
72.3086     81.253     0.000
73.3603     81.245     0.000
74.4274     81.232     0.000
75.5099     81.220     0.000
76.6083     81.203     0.000
77.7226     81.182     0.000
78.8531     81.160     0.000
80.0000     81.131     0.000
81.1636     81.100     0.000
82.3442     81.068     0.000
83.5419     81.032     0.000
84.7570     80.997     0.000
85.9899     80.964     0.000
87.2406     80.932     0.000
88.5096     80.905     0.000
89.7970     80.884     0.000
91.1031     80.864     0.000
92.4282     80.852     0.000
93.7726     80.841     0.000
95.1366     80.832     0.000
96.5204     80.823     0.000
97.9243     80.808     0.000
99.3486     80.793     0.000
100.794     80.772     0.000
102.260     80.749     0.000
103.747     80.729     0.000
105.256     80.709     0.000
106.787     80.699     0.000
108.340     80.691     0.000
109.916     80.704     0.000
111.515     80.720     0.000
113.137     80.758     0.000
114.783     80.800     0.000
116.452     80.851     0.000
118.146     80.896     0.000
119.865     80.937     0.000
121.608     80.946     0.000
123.377     80.938     0.000
125.171     80.882     0.000
126.992     80.790     0.000
128.839     80.669     0.000
130.713     80.504     0.000
132.615     80.333     0.000
134.543     80.158     0.000
136.500     80.016     0.000
138.486     79.906     0.000
140.500     79.836     0.000
142.544     79.828     0.000
144.617     79.837     0.000
146.721     79.857     0.000
148.855     79.856     0.000
151.020     79.808     0.000
153.217     79.716     0.000
155.445     79.579     0.000
157.706     79.409     0.000
160.000     79.257     0.000
162.327     79.151     0.000
164.688     79.111     0.000
167.084     79.147     0.000
169.514     79.252     0.000
171.980     79.369     0.000
174.481     79.463     0.000
177.019     79.513     0.000
179.594     79.517     0.000
182.206     79.490     0.000
184.856     79.460     0.000
187.545     79.450     0.000
190.273     79.464     0.000
193.041     79.472     0.000
195.849     79.435     0.000
198.697     79.324     0.000
201.587     79.142     0.000
204.520     78.933     0.000
207.494     78.765     0.000
210.512     78.698     0.000
213.574     78.744     0.000
216.681     78.851     0.000
219.833     78.927     0.000
223.030     78.891     0.000
226.274     78.735     0.000
229.565     78.514     0.000
232.905     78.320     0.000
236.292     78.221     0.000
239.729     78.224     0.000
243.216     78.270     0.000
246.754     78.275     0.000
250.343     78.220     0.000
253.984     78.153     0.000
257.678     78.138     0.000
261.426     78.207     0.000
265.229     78.292     0.000
269.087     78.311     0.000
273.001     78.213     0.000
276.972     78.059     0.000
281.000     77.951     0.000
285.088     77.958     0.000
289.234     78.011     0.000
293.441     78.006     0.000
297.709     77.921     0.000
302.040     77.897     0.000
306.433     78.038     0.000
310.890     78.174     0.000
315.412     78.263     0.000
320.000     78.245     0.000
324.655     78.132     0.000
329.377     78.008     0.000
334.168     77.914     0.000
339.028     77.817     0.000
343.959     77.651     0.000
348.962     77.418     0.000
354.038     77.169     0.000
359.188     76.936     0.000
364.412     76.686     0.000
369.713     76.396     0.000
375.090     76.117     0.000
380.546     75.928     0.000
386.081     75.813     0.000
391.697     75.696     0.000
397.394     75.546     0.000
403.175     75.380     0.000
409.039     75.182     0.000
414.989     74.914     0.000
421.025     74.617     0.000
427.149     74.391     0.000
433.362     74.302     0.000
439.665     74.360     0.000
446.060     74.545     0.000
452.548     74.795     0.000
459.131     75.058     0.000
465.809     75.334     0.000
472.584     75.589     0.000
479.458     75.735     0.000
486.432     75.749     0.000
493.507     75.646     0.000
500.686     75.430     0.000
507.968     75.072     0.000
515.357     74.858     0.000
522.853     74.688     0.000
530.458     74.697     0.000
538.174     74.926     0.000
546.002     75.304     0.000
553.943     75.715     0.000
562.001     76.043     0.000
570.175     76.224     0.000
578.469     76.261     0.000
586.883     76.223     0.000
595.419     76.221     0.000
604.080     76.328     0.000
612.866     76.526     0.000
621.780     76.716     0.000
630.824     76.809     0.000
640.000     76.791     0.000
649.309     76.742     0.000
658.753     76.773     0.000
668.335     76.925     0.000
678.056     77.113     0.000
687.919     77.229     0.000
697.925     77.258     0.000
708.077     77.325     0.000
718.376     77.456     0.000
728.825     77.609     0.000
739.426     77.600     0.000
750.181     77.325     0.000
761.093     76.907     0.000
772.163     76.673     0.000
783.394     76.824     0.000
794.789     77.203     0.000
806.349     77.472     0.000
818.078     77.456     0.000
829.977     77.207     0.000
842.050     76.900     0.000
854.298     76.734     0.000
866.724     76.831     0.000
879.330     77.101     0.000
892.120     77.238     0.000
905.097     77.039     0.000
918.262     76.751     0.000
931.618     76.853     0.000
945.169     77.267     0.000
958.917     77.535     0.000
972.864     77.439     0.000
987.015     77.298     0.000
1001.37     77.342     0.000
1015.94     77.309     0.000
1030.71     77.044     0.000
1045.71     76.902     0.000
1060.92     77.058     0.000
1076.35     77.145     0.000
1092.00     77.025     0.000
1107.89     76.884     0.000
1124.00     76.706     0.000
1140.35     76.362     0.000
1156.94     75.971     0.000
1173.77     75.749     0.000
1190.84     75.893     0.000
1208.16     76.295     0.000
1225.73     76.465     0.000
1243.56     76.259     0.000
1261.65     76.012     0.000
1280.00     75.743     0.000
1298.62     75.181     0.000
1317.51     74.497     0.000
1336.67     74.241     0.000
1356.11     74.667     0.000
1375.84     75.410     0.000
1395.85     75.493     0.000
1416.15     74.727     0.000
1436.75     73.986     0.000
1457.65     74.145     0.000
1478.85     74.115     0.000
1500.36     73.048     0.000
1522.19     72.637     0.000
1544.33     73.008     0.000
1566.79     72.166     0.000
1589.58     70.110     0.000
1612.70     69.256     0.000
1636.16     69.927     0.000
1659.95     70.728     0.000
1684.10     70.707     0.000
1708.60     69.306     0.000
1733.45     67.636     0.000
1758.66     67.580     0.000
1784.24     69.344     0.000
1810.19     71.047     0.000
1836.52     71.441     0.000
1863.24     70.638     0.000
1890.34     69.580     0.000
1917.83     69.323     0.000
1945.73     70.002     0.000
1974.03     70.359     0.000
2002.74     69.941     0.000
2031.87     70.112     0.000
2061.43     70.455     0.000
2091.41     70.890     0.000
2121.83     71.512     0.000
2152.69     71.748     0.000
2184.01     71.640     0.000
2215.77     71.382     0.000
2248.00     71.046     0.000
2280.70     70.566     0.000
2313.87     69.752     0.000
2347.53     68.746     0.000
2381.68     68.155     0.000
2416.32     67.874     0.000
2451.46     66.378     0.000
2487.12     64.742     0.000
2523.30     64.815     0.000
2560.00     63.851     0.000
2597.24     63.074     0.000
2635.01     64.321     0.000
2673.34     65.783     0.000
2712.23     65.286     0.000
2751.68     63.785     0.000
2791.70     63.180     0.000
2832.31     63.695     0.000
2873.50     65.878     0.000
2915.30     67.965     0.000
2957.70     67.670     0.000
3000.72     67.264     0.000
3044.37     67.494     0.000
3088.65     68.270     0.000
3133.58     69.374     0.000
3179.16     69.911     0.000
3225.40     69.311     0.000
3272.31     68.645     0.000
3319.91     68.235     0.000
3368.20     67.986     0.000
3417.19     68.542     0.000
3466.89     69.268     0.000
3517.32     69.615     0.000
3568.48     69.493     0.000
3620.39     69.516     0.000
3673.05     69.209     0.000
3726.47     68.759     0.000
3780.67     68.938     0.000
3835.67     69.126     0.000
3891.46     69.171     0.000
3948.06     68.971     0.000
4005.49     69.295     0.000
4063.75     69.326     0.000
4122.86     68.501     0.000
4182.82     68.909     0.000
4243.66     69.720     0.000
4305.39     69.865     0.000
4368.01     70.344     0.000
4431.55     71.311     0.000
4496.01     71.040     0.000
4561.40     69.879     0.000
4627.75     68.868     0.000
4695.06     68.073     0.000
4763.35     67.076     0.000
4832.64     63.860     0.000
4902.93     63.263     0.000
4974.24     66.801     0.000
5046.60     68.332     0.000
5120.00     68.324     0.000
5194.47     68.551     0.000
5270.03     68.910     0.000
5346.68     68.125     0.000
5424.45     67.035     0.000
5503.35     66.673     0.000
5583.40     66.264     0.000
5664.61     66.025     0.000
5747.01     65.069     0.000
5830.60     64.425     0.000
5915.41     64.986     0.000
6001.45     64.788     0.000
6088.74     64.635     0.000
6177.30     64.888     0.000
6267.15     64.904     0.000
6358.31     64.365     0.000
6450.80     63.994     0.000
6544.62     64.571     0.000
6639.82     63.661     0.000
6736.40     62.177     0.000
6834.38     61.914     0.000
6933.79     62.144     0.000
7034.64     61.426     0.000
7136.96     59.444     0.000
7240.77     58.603     0.000
7346.09     58.807     0.000
7452.94     60.181     0.000
7561.35     61.571     0.000
7671.33     61.744     0.000
7782.91     61.779     0.000
7896.12     61.539     0.000
8010.97     59.643     0.000
8127.49     56.784     0.000
8245.71     55.346     0.000
8365.65     55.641     0.000
8487.33     57.437     0.000
8610.78     58.618     0.000
8736.03     57.930     0.000
8863.09     57.935     0.000
8992.01     58.758     0.000
9122.80     59.326     0.000
9255.50     60.139     0.000
9390.12     60.654     0.000
9526.70     60.838     0.000
9665.27     60.116     0.000
9805.86     59.016     0.000
9948.49     58.875     0.000
10093.2     59.405     0.000
10240.0     60.153     0.000
10388.9     60.032     0.000
10540.1     58.589     0.000
10693.4     57.387     0.000
10848.9     58.134     0.000
11006.7     58.815     0.000
11166.8     57.926     0.000
11329.2     56.857     0.000
11494.0     55.554     0.000
11661.2     53.612     0.000
11830.8     51.965     0.000
12002.9     51.522     0.000
12177.5     52.556     0.000
12354.6     53.230     0.000
12534.3     52.000     0.000
12716.6     50.198     0.000
12901.6     49.217     0.000
13089.2     48.784     0.000
13279.6     47.548     0.000
13472.8     45.696     0.000
13668.8     46.349     0.000
13867.6     48.563     0.000
14069.3     49.149     0.000
14273.9     48.181     0.000
14481.5     45.802     0.000
14692.2     44.450     0.000
14905.9     47.095     0.000
15122.7     50.213     0.000
15342.7     50.466     0.000
15565.8     49.517     0.000
15792.2     49.227     0.000
16021.9     49.906     0.000
16255.0     50.697     0.000
16491.4     51.352     0.000
16731.3     51.596     0.000
16974.7     51.502     0.000
17221.6     51.594     0.000
17472.1     52.198     0.000
17726.2     53.325     0.000
17984.0     54.866     0.000
18245.6     56.451     0.000
18511.0     57.549     0.000
18780.2     58.006     0.000
19053.4     58.149     0.000
19330.5     58.434     0.000
19611.7     58.424     0.000
19897.0     58.513     0.000
20186.4     58.473     0.000
20480.0     58.433     0.000
20777.9     58.392     0.000
21080.1     58.352     0.000
21386.7     58.311     0.000
21697.8     58.271     0.000
22013.4     58.230     0.000
22333.6     58.190     0.000
22658.4     58.149     0.000
22988.0     58.109     0.000
23322.4     58.069     0.000
23661.6     58.028     0.000
24005.8     57.988     0.000
24355.0     57.947     0.000
24709.2     57.907     0.000
25068.6     57.866     0.000
25433.2     57.826     0.000
25803.2     57.786     0.000
26178.5     57.745     0.000
26559.3     57.705     0.000
26945.6     57.664     0.000
27337.5     57.624     0.000
27735.2     57.583     0.000
28138.6     57.543     0.000
28547.9     57.502     0.000
28963.1     57.462     0.000
29384.4     57.422     0.000
29811.8     57.381     0.000
30245.4     57.341     0.000
30685.3     57.300     0.000
31131.7     57.260     0.000
31584.5     57.219     0.000
32043.9     57.179     0.000
32510.0     57.139     0.000
32982.8     57.098     0.000
33462.6     57.058     0.000
33949.3     57.017     0.000
34443.1     56.977     0.000
34944.1     56.936     0.000
35452.4     56.896     0.000
35968.0     56.855     0.000
36491.2     56.815     0.000
37022.0     56.775     0.000
37560.5     56.734     0.000
38106.8     56.694     0.000
38661.1     56.653     0.000
39223.4     56.613     0.000
39793.9     56.572     0.000
