Freq[Hz]     dBSPL  Phase[Deg]
5.00000     62.896     0.000
5.07273     62.978     0.000
5.14651     63.060     0.000
5.22137     63.141     0.000
5.29732     63.223     0.000
5.37437     63.304     0.000
5.45254     63.386     0.000
5.53185     63.468     0.000
5.61231     63.549     0.000
5.69394     63.631     0.000
5.77676     63.712     0.000
5.86079     63.794     0.000
5.94604     63.875     0.000
6.03252     63.957     0.000
6.12027     64.039     0.000
6.20929     64.120     0.000
6.29961     64.202     0.000
6.39124     64.283     0.000
6.48420     64.365     0.000
6.57851     64.446     0.000
6.67420     64.528     0.000
6.77128     64.610     0.000
6.86977     64.691     0.000
6.96969     64.773     0.000
7.07107     64.854     0.000
7.17392     64.936     0.000
7.27827     65.017     0.000
7.38413     65.099     0.000
7.49154     65.181     0.000
7.60050     65.262     0.000
7.71105     65.344     0.000
7.82321     65.425     0.000
7.93701     65.507     0.000
8.05245     65.589     0.000
8.16958     65.670     0.000
8.28841     65.752     0.000
8.40896     65.833     0.000
8.53128     65.915     0.000
8.65537     65.996     0.000
8.78126     66.078     0.000
8.90899     66.160     0.000
9.03857     66.241     0.000
9.17004     66.323     0.000
9.30342     66.404     0.000
9.43874     66.486     0.000
9.57603     66.567     0.000
9.71532     66.649     0.000
9.85663     66.731     0.000
10.0000     66.812     0.000
10.1455     66.894     0.000
10.2930     66.975     0.000
10.4427     67.057     0.000
10.5946     67.139     0.000
10.7487     67.220     0.000
10.9051     67.302     0.000
11.0637     67.383     0.000
11.2246     67.465     0.000
11.3879     67.546     0.000
11.5535     67.628     0.000
11.7216     67.710     0.000
11.8921     67.791     0.000
12.0650     67.873     0.000
12.2405     67.954     0.000
12.4186     68.036     0.000
12.5992     68.117     0.000
12.7825     68.199     0.000
12.9684     68.281     0.000
13.1570     68.362     0.000
13.3484     68.444     0.000
13.5426     68.525     0.000
13.7395     68.607     0.000
13.9394     68.688     0.000
14.1421     68.770     0.000
14.3478     68.852     0.000
14.5565     68.933     0.000
14.7683     69.015     0.000
14.9831     69.096     0.000
15.2010     69.178     0.000
15.4221     69.260     0.000
15.6464     69.341     0.000
15.8740     69.423     0.000
16.1049     69.504     0.000
16.3392     69.586     0.000
16.5768     69.667     0.000
16.8179     69.749     0.000
17.0626     69.831     0.000
17.3107     69.912     0.000
17.5625     69.994     0.000
17.8180     70.075     0.000
18.0771     70.157     0.000
18.3401     70.238     0.000
18.6068     70.320     0.000
18.8775     70.402     0.000
19.1521     70.483     0.000
19.4306     70.565     0.000
19.7133     70.646     0.000
20.0000     70.728     0.000
20.2909     70.809     0.000
20.5860     70.891     0.000
20.8855     70.951     0.000
21.1893     71.011     0.000
21.4975     71.071     0.000
21.8102     71.131     0.000
22.1274     71.192     0.000
22.4492     71.252     0.000
22.7758     71.312     0.000
23.1071     71.372     0.000
23.4432     71.433     0.000
23.7841     71.552     0.000
24.1301     71.672     0.000
24.4811     71.791     0.000
24.8372     71.911     0.000
25.1984     72.030     0.000
25.5649     72.150     0.000
25.9368     72.269     0.000
26.3141     72.389     0.000
26.6968     72.545     0.000
27.0851     72.707     0.000
27.4791     72.869     0.000
27.8788     73.032     0.000
28.2843     73.194     0.000
28.6957     73.356     0.000
29.1131     73.518     0.000
29.5365     73.698     0.000
29.9661     73.891     0.000
30.4020     74.084     0.000
30.8442     74.277     0.000
31.2929     74.471     0.000
31.7480     74.664     0.000
32.2098     74.857     0.000
32.6783     75.068     0.000
33.1536     75.280     0.000
33.6359     75.491     0.000
34.1251     75.703     0.000
34.6215     75.915     0.000
35.1250     76.126     0.000
35.6359     76.345     0.000
36.1543     76.564     0.000
36.6802     76.783     0.000
37.2137     77.002     0.000
37.7550     77.221     0.000
38.3041     77.475     0.000
38.8613     77.782     0.000
39.4265     78.088     0.000
40.0000     78.395     0.000
40.5818     78.701     0.000
41.1721     78.996     0.000
41.7710     79.260     0.000
42.3785     79.523     0.000
42.9949     79.787     0.000
43.6203     80.050     0.000
44.2548     80.292     0.000
44.8985     80.510     0.000
45.5515     80.728     0.000
46.2141     80.946     0.000
46.8863     81.163     0.000
47.5683     81.335     0.000
48.2602     81.507     0.000
48.9621     81.679     0.000
49.6743     81.851     0.000
50.3968     81.988     0.000
51.1299     82.116     0.000
51.8736     82.245     0.000
52.6281     82.374     0.000
53.3936     82.471     0.000
54.1702     82.563     0.000
54.9581     82.655     0.000
55.7575     82.743     0.000
56.5685     82.808     0.000
57.3914     82.873     0.000
58.2261     82.938     0.000
59.0730     82.995     0.000
59.9323     83.045     0.000
60.8040     83.095     0.000
61.6884     83.144     0.000
62.5857     83.190     0.000
63.4960     83.235     0.000
64.4196     83.281     0.000
65.3566     83.327     0.000
66.3073     83.373     0.000
67.2717     83.419     0.000
68.2502     83.464     0.000
69.2429     83.509     0.000
70.2501     83.554     0.000
71.2719     83.591     0.000
72.3086     83.629     0.000
73.3603     83.664     0.000
74.4274     83.687     0.000
75.5099     83.710     0.000
76.6083     83.726     0.000
77.7226     83.731     0.000
78.8531     83.737     0.000
80.0000     83.731     0.000
81.1636     83.723     0.000
82.3442     83.713     0.000
83.5419     83.698     0.000
84.7570     83.684     0.000
85.9899     83.673     0.000
87.2406     83.663     0.000
88.5096     83.658     0.000
89.7970     83.659     0.000
91.1031     83.662     0.000
92.4282     83.673     0.000
93.7726     83.684     0.000
95.1366     83.701     0.000
96.5204     83.718     0.000
97.9243     83.733     0.000
99.3486     83.749     0.000
100.794     83.756     0.000
102.260     83.762     0.000
103.747     83.765     0.000
105.256     83.766     0.000
106.787     83.762     0.000
108.340     83.757     0.000
109.916     83.744     0.000
111.515     83.731     0.000
113.137     83.712     0.000
114.783     83.692     0.000
116.452     83.667     0.000
118.146     83.641     0.000
119.865     83.614     0.000
121.608     83.591     0.000
123.377     83.570     0.000
125.171     83.559     0.000
126.992     83.562     0.000
128.839     83.576     0.000
130.713     83.622     0.000
132.615     83.683     0.000
134.543     83.765     0.000
136.500     83.870     0.000
138.486     83.981     0.000
140.500     84.096     0.000
142.544     84.196     0.000
144.617     84.276     0.000
146.721     84.333     0.000
148.855     84.348     0.000
151.020     84.335     0.000
153.217     84.305     0.000
155.445     84.266     0.000
157.706     84.241     0.000
160.000     84.246     0.000
162.327     84.283     0.000
164.688     84.349     0.000
167.084     84.435     0.000
169.514     84.518     0.000
171.980     84.576     0.000
174.481     84.604     0.000
177.019     84.602     0.000
179.594     84.583     0.000
182.206     84.563     0.000
184.856     84.554     0.000
187.545     84.561     0.000
190.273     84.571     0.000
193.041     84.561     0.000
195.849     84.523     0.000
198.697     84.465     0.000
201.587     84.416     0.000
204.520     84.414     0.000
207.494     84.483     0.000
210.512     84.615     0.000
213.574     84.769     0.000
216.681     84.892     0.000
219.833     84.945     0.000
223.030     84.930     0.000
226.274     84.891     0.000
229.565     84.878     0.000
232.905     84.911     0.000
236.292     84.967     0.000
239.729     84.999     0.000
243.216     84.971     0.000
246.754     84.901     0.000
250.343     84.869     0.000
253.984     84.941     0.000
257.678     85.126     0.000
261.426     85.358     0.000
265.229     85.537     0.000
269.087     85.624     0.000
273.001     85.646     0.000
276.972     85.682     0.000
281.000     85.777     0.000
285.088     85.909     0.000
289.234     86.008     0.000
293.441     86.030     0.000
297.709     85.992     0.000
302.040     85.953     0.000
306.433     85.937     0.000
310.890     85.925     0.000
315.412     85.908     0.000
320.000     85.897     0.000
324.655     85.912     0.000
329.377     85.954     0.000
334.168     85.997     0.000
339.028     86.016     0.000
343.959     86.017     0.000
348.962     86.018     0.000
354.038     86.015     0.000
359.188     85.975     0.000
364.412     85.892     0.000
369.713     85.803     0.000
375.090     85.756     0.000
380.546     85.754     0.000
386.081     85.764     0.000
391.697     85.777     0.000
397.394     85.800     0.000
403.175     85.813     0.000
409.039     85.781     0.000
414.989     85.703     0.000
421.025     85.607     0.000
427.149     85.511     0.000
433.362     85.413     0.000
439.665     85.310     0.000
446.060     85.202     0.000
452.548     85.087     0.000
459.131     84.984     0.000
465.809     84.911     0.000
472.584     84.849     0.000
479.458     84.772     0.000
486.432     84.704     0.000
493.507     84.668     0.000
500.686     84.640     0.000
507.968     84.624     0.000
515.357     84.637     0.000
522.853     84.671     0.000
530.458     84.707     0.000
538.174     84.721     0.000
546.002     84.694     0.000
553.943     84.630     0.000
562.001     84.564     0.000
570.175     84.531     0.000
578.469     84.546     0.000
586.883     84.594     0.000
595.419     84.647     0.000
604.080     84.671     0.000
612.866     84.654     0.000
621.780     84.614     0.000
630.824     84.587     0.000
640.000     84.576     0.000
649.309     84.553     0.000
658.753     84.481     0.000
668.335     84.356     0.000
678.056     84.238     0.000
687.919     84.225     0.000
697.925     84.380     0.000
708.077     84.681     0.000
718.376     84.864     0.000
728.825     84.945     0.000
739.426     84.857     0.000
750.181     84.676     0.000
761.093     84.520     0.000
772.163     84.450     0.000
783.394     84.426     0.000
794.789     84.377     0.000
806.349     84.293     0.000
818.078     84.236     0.000
829.977     84.255     0.000
842.050     84.336     0.000
854.298     84.421     0.000
866.724     84.474     0.000
879.330     84.479     0.000
892.120     84.435     0.000
905.097     84.377     0.000
918.262     84.408     0.000
931.618     84.537     0.000
945.169     84.687     0.000
958.917     84.738     0.000
972.864     84.706     0.000
987.015     84.697     0.000
1001.37     84.710     0.000
1015.94     84.617     0.000
1030.71     84.394     0.000
1045.71     84.209     0.000
1060.92     84.214     0.000
1076.35     84.403     0.000
1092.00     84.688     0.000
1107.89     84.932     0.000
1124.00     85.000     0.000
1140.35     84.916     0.000
1156.94     84.959     0.000
1173.77     85.233     0.000
1190.84     85.511     0.000
1208.16     85.541     0.000
1225.73     85.441     0.000
1243.56     85.387     0.000
1261.65     85.383     0.000
1280.00     85.449     0.000
1298.62     85.721     0.000
1317.51     86.137     0.000
1336.67     86.380     0.000
1356.11     86.467     0.000
1375.84     86.576     0.000
1395.85     86.759     0.000
1416.15     86.920     0.000
1436.75     87.047     0.000
1457.65     87.121     0.000
1478.85     87.094     0.000
1500.36     87.174     0.000
1522.19     87.509     0.000
1544.33     87.625     0.000
1566.79     87.531     0.000
1589.58     87.522     0.000
1612.70     87.502     0.000
1636.16     87.344     0.000
1659.95     87.243     0.000
1684.10     87.213     0.000
1708.60     87.314     0.000
1733.45     87.364     0.000
1758.66     87.311     0.000
1784.24     87.406     0.000
1810.19     87.433     0.000
1836.52     87.296     0.000
1863.24     87.312     0.000
1890.34     87.224     0.000
1917.83     86.874     0.000
1945.73     86.647     0.000
1974.03     86.476     0.000
2002.74     86.241     0.000
2031.87     86.062     0.000
2061.43     86.053     0.000
2091.41     86.329     0.000
2121.83     86.549     0.000
2152.69     86.465     0.000
2184.01     86.300     0.000
2215.77     86.246     0.000
2248.00     86.320     0.000
2280.70     86.258     0.000
2313.87     86.031     0.000
2347.53     85.851     0.000
2381.68     85.665     0.000
2416.32     85.574     0.000
2451.46     85.527     0.000
2487.12     85.269     0.000
2523.30     85.049     0.000
2560.00     84.823     0.000
2597.24     84.406     0.000
2635.01     84.006     0.000
2673.34     83.604     0.000
2712.23     83.208     0.000
2751.68     82.897     0.000
2791.70     82.463     0.000
2832.31     81.836     0.000
2873.50     81.350     0.000
2915.30     81.259     0.000
2957.70     80.966     0.000
3000.72     80.160     0.000
3044.37     79.685     0.000
3088.65     79.634     0.000
3133.58     79.468     0.000
3179.16     79.011     0.000
3225.40     78.505     0.000
3272.31     78.350     0.000
3319.91     78.274     0.000
3368.20     77.705     0.000
3417.19     76.619     0.000
3466.89     76.101     0.000
3517.32     76.249     0.000
3568.48     76.248     0.000
3620.39     76.455     0.000
3673.05     76.732     0.000
3726.47     76.813     0.000
3780.67     76.705     0.000
3835.67     76.298     0.000
3891.46     76.079     0.000
3948.06     76.112     0.000
4005.49     75.776     0.000
4063.75     75.126     0.000
4122.86     75.152     0.000
4182.82     75.424     0.000
4243.66     75.097     0.000
4305.39     74.892     0.000
4368.01     74.853     0.000
4431.55     74.582     0.000
4496.01     74.470     0.000
4561.40     74.471     0.000
4627.75     73.751     0.000
4695.06     73.114     0.000
4763.35     73.394     0.000
4832.64     73.395     0.000
4902.93     72.797     0.000
4974.24     72.362     0.000
5046.60     71.872     0.000
5120.00     71.971     0.000
5194.47     72.580     0.000
5270.03     72.632     0.000
5346.68     73.203     0.000
5424.45     73.350     0.000
5503.35     72.955     0.000
5583.40     73.315     0.000
5664.61     73.239     0.000
5747.01     72.885     0.000
5830.60     72.591     0.000
5915.41     71.961     0.000
6001.45     71.725     0.000
6088.74     71.598     0.000
6177.30     71.650     0.000
6267.15     70.566     0.000
6358.31     68.752     0.000
6450.80     68.159     0.000
6544.62     68.560     0.000
6639.82     69.480     0.000
6736.40     69.966     0.000
6834.38     70.290     0.000
6933.79     70.767     0.000
7034.64     71.515     0.000
7136.96     71.804     0.000
7240.77     71.776     0.000
7346.09     71.962     0.000
7452.94     72.361     0.000
7561.35     72.949     0.000
7671.33     72.826     0.000
7782.91     72.303     0.000
7896.12     71.619     0.000
8010.97     71.390     0.000
8127.49     71.686     0.000
8245.71     72.322     0.000
8365.65     73.181     0.000
8487.33     73.417     0.000
8610.78     73.533     0.000
8736.03     73.913     0.000
8863.09     74.187     0.000
8992.01     74.144     0.000
9122.80     73.951     0.000
9255.50     74.287     0.000
9390.12     74.879     0.000
9526.70     75.125     0.000
9665.27     75.393     0.000
9805.86     75.745     0.000
9948.49     75.906     0.000
10093.2     76.120     0.000
10240.0     76.342     0.000
10388.9     76.265     0.000
10540.1     75.839     0.000
10693.4     75.229     0.000
10848.9     74.678     0.000
11006.7     74.378     0.000
11166.8     74.150     0.000
11329.2     73.713     0.000
11494.0     72.972     0.000
11661.2     71.493     0.000
11830.8     69.138     0.000
12002.9     66.459     0.000
12177.5     63.914     0.000
12354.6     61.911     0.000
12534.3     60.522     0.000
12716.6     59.800     0.000
12901.6     60.206     0.000
13089.2     61.583     0.000
13279.6     62.695     0.000
13472.8     62.517     0.000
13668.8     62.149     0.000
13867.6     63.348     0.000
14069.3     65.485     0.000
14273.9     66.914     0.000
14481.5     67.564     0.000
14692.2     68.396     0.000
14905.9     69.919     0.000
15122.7     71.577     0.000
15342.7     72.639     0.000
15565.8     73.010     0.000
15792.2     72.829     0.000
16021.9     72.646     0.000
16255.0     73.136     0.000
16491.4     73.849     0.000
16731.3     73.923     0.000
16974.7     73.530     0.000
17221.6     73.302     0.000
17472.1     72.969     0.000
17726.2     71.934     0.000
17984.0     70.448     0.000
18245.6     69.162     0.000
18511.0     68.055     0.000
18780.2     66.830     0.000
19053.4     65.628     0.000
19330.5     64.155     0.000
19611.7     62.630     0.000
19897.0     62.345     0.000
20186.4     62.263     0.000
20480.0     62.181     0.000
20777.9     62.098     0.000
21080.1     62.016     0.000
21386.7     61.934     0.000
21697.8     61.851     0.000
22013.4     61.769     0.000
22333.6     61.686     0.000
22658.4     61.604     0.000
22988.0     61.522     0.000
23322.4     61.439     0.000
23661.6     61.357     0.000
24005.8     61.275     0.000
24355.0     61.192     0.000
24709.2     61.110     0.000
25068.6     61.028     0.000
25433.2     60.945     0.000
25803.2     60.863     0.000
26178.5     60.780     0.000
26559.3     60.698     0.000
26945.6     60.616     0.000
27337.5     60.533     0.000
27735.2     60.451     0.000
28138.6     60.369     0.000
28547.9     60.286     0.000
28963.1     60.204     0.000
29384.4     60.121     0.000
29811.8     60.039     0.000
30245.4     59.957     0.000
30685.3     59.874     0.000
31131.7     59.792     0.000
31584.5     59.710     0.000
32043.9     59.627     0.000
32510.0     59.545     0.000
32982.8     59.463     0.000
33462.6     59.380     0.000
33949.3     59.298     0.000
34443.1     59.215     0.000
34944.1     59.133     0.000
35452.4     59.051     0.000
35968.0     58.968     0.000
36491.2     58.886     0.000
37022.0     58.804     0.000
37560.5     58.721     0.000
38106.8     58.639     0.000
38661.1     58.556     0.000
39223.4     58.474     0.000
39793.9     58.392     0.000
