Freq[Hz]     dBSPL  Phase[Deg]
5.00000     60.088     0.000
5.07273     60.169     0.000
5.14651     60.251     0.000
5.22137     60.332     0.000
5.29732     60.414     0.000
5.37437     60.495     0.000
5.45254     60.577     0.000
5.53185     60.659     0.000
5.61231     60.740     0.000
5.69394     60.822     0.000
5.77676     60.903     0.000
5.86079     60.985     0.000
5.94604     61.067     0.000
6.03252     61.148     0.000
6.12027     61.230     0.000
6.20929     61.311     0.000
6.29961     61.393     0.000
6.39124     61.474     0.000
6.48420     61.556     0.000
6.57851     61.638     0.000
6.67420     61.719     0.000
6.77128     61.801     0.000
6.86977     61.882     0.000
6.96969     61.964     0.000
7.07107     62.045     0.000
7.17392     62.127     0.000
7.27827     62.209     0.000
7.38413     62.290     0.000
7.49154     62.372     0.000
7.60050     62.453     0.000
7.71105     62.535     0.000
7.82321     62.616     0.000
7.93701     62.698     0.000
8.05245     62.780     0.000
8.16958     62.861     0.000
8.28841     62.943     0.000
8.40896     63.024     0.000
8.53128     63.106     0.000
8.65537     63.188     0.000
8.78126     63.269     0.000
8.90899     63.351     0.000
9.03857     63.432     0.000
9.17004     63.514     0.000
9.30342     63.595     0.000
9.43874     63.677     0.000
9.57603     63.759     0.000
9.71532     63.840     0.000
9.85663     63.922     0.000
10.0000     64.003     0.000
10.1455     64.085     0.000
10.2930     64.166     0.000
10.4427     64.248     0.000
10.5946     64.330     0.000
10.7487     64.411     0.000
10.9051     64.493     0.000
11.0637     64.574     0.000
11.2246     64.656     0.000
11.3879     64.737     0.000
11.5535     64.819     0.000
11.7216     64.901     0.000
11.8921     64.982     0.000
12.0650     65.064     0.000
12.2405     65.145     0.000
12.4186     65.227     0.000
12.5992     65.309     0.000
12.7825     65.390     0.000
12.9684     65.472     0.000
13.1570     65.553     0.000
13.3484     65.635     0.000
13.5426     65.716     0.000
13.7395     65.798     0.000
13.9394     65.880     0.000
14.1421     65.961     0.000
14.3478     66.043     0.000
14.5565     66.124     0.000
14.7683     66.206     0.000
14.9831     66.287     0.000
15.2010     66.369     0.000
15.4221     66.451     0.000
15.6464     66.532     0.000
15.8740     66.614     0.000
16.1049     66.695     0.000
16.3392     66.777     0.000
16.5768     66.859     0.000
16.8179     66.940     0.000
17.0626     67.022     0.000
17.3107     67.103     0.000
17.5625     67.185     0.000
17.8180     67.266     0.000
18.0771     67.348     0.000
18.3401     67.430     0.000
18.6068     67.511     0.000
18.8775     67.593     0.000
19.1521     67.674     0.000
19.4306     67.756     0.000
19.7133     67.837     0.000
20.0000     67.919     0.000
20.2909     68.001     0.000
20.5860     68.082     0.000
20.8855     68.142     0.000
21.1893     68.202     0.000
21.4975     68.262     0.000
21.8102     68.323     0.000
22.1274     68.383     0.000
22.4492     68.443     0.000
22.7758     68.503     0.000
23.1071     68.563     0.000
23.4432     68.624     0.000
23.7841     68.744     0.000
24.1301     68.863     0.000
24.4811     68.982     0.000
24.8372     69.102     0.000
25.1984     69.221     0.000
25.5649     69.341     0.000
25.9368     69.460     0.000
26.3141     69.580     0.000
26.6968     69.736     0.000
27.0851     69.898     0.000
27.4791     70.060     0.000
27.8788     70.223     0.000
28.2843     70.385     0.000
28.6957     70.547     0.000
29.1131     70.710     0.000
29.5365     70.889     0.000
29.9661     71.082     0.000
30.4020     71.275     0.000
30.8442     71.469     0.000
31.2929     71.662     0.000
31.7480     71.855     0.000
32.2098     72.048     0.000
32.6783     72.259     0.000
33.1536     72.471     0.000
33.6359     72.682     0.000
34.1251     72.894     0.000
34.6215     73.106     0.000
35.1250     73.317     0.000
35.6359     73.536     0.000
36.1543     73.755     0.000
36.6802     73.974     0.000
37.2137     74.193     0.000
37.7550     74.413     0.000
38.3041     74.669     0.000
38.8613     74.982     0.000
39.4265     75.295     0.000
40.0000     75.608     0.000
40.5818     75.920     0.000
41.1721     76.223     0.000
41.7710     76.497     0.000
42.3785     76.771     0.000
42.9949     77.045     0.000
43.6203     77.319     0.000
44.2548     77.567     0.000
44.8985     77.786     0.000
45.5515     78.006     0.000
46.2141     78.226     0.000
46.8863     78.445     0.000
47.5683     78.618     0.000
48.2602     78.791     0.000
48.9621     78.964     0.000
49.6743     79.137     0.000
50.3968     79.271     0.000
51.1299     79.398     0.000
51.8736     79.524     0.000
52.6281     79.650     0.000
53.3936     79.740     0.000
54.1702     79.824     0.000
54.9581     79.908     0.000
55.7575     79.989     0.000
56.5685     80.044     0.000
57.3914     80.098     0.000
58.2261     80.153     0.000
59.0730     80.193     0.000
59.9323     80.223     0.000
60.8040     80.253     0.000
61.6884     80.281     0.000
62.5857     80.302     0.000
63.4960     80.324     0.000
64.4196     80.345     0.000
65.3566     80.358     0.000
66.3073     80.370     0.000
67.2717     80.382     0.000
68.2502     80.395     0.000
69.2429     80.409     0.000
70.2501     80.422     0.000
71.2719     80.427     0.000
72.3086     80.432     0.000
73.3603     80.436     0.000
74.4274     80.439     0.000
75.5099     80.443     0.000
76.6083     80.442     0.000
77.7226     80.436     0.000
78.8531     80.430     0.000
80.0000     80.428     0.000
81.1636     80.427     0.000
82.3442     80.426     0.000
83.5419     80.427     0.000
84.7570     80.428     0.000
85.9899     80.440     0.000
87.2406     80.455     0.000
88.5096     80.471     0.000
89.7970     80.488     0.000
91.1031     80.506     0.000
92.4282     80.523     0.000
93.7726     80.540     0.000
95.1366     80.538     0.000
96.5204     80.537     0.000
97.9243     80.524     0.000
99.3486     80.511     0.000
100.794     80.437     0.000
102.260     80.350     0.000
103.747     80.272     0.000
105.256     80.195     0.000
106.787     80.134     0.000
108.340     80.075     0.000
109.916     80.020     0.000
111.515     79.968     0.000
113.137     79.930     0.000
114.783     79.897     0.000
116.452     79.876     0.000
118.146     79.860     0.000
119.865     79.849     0.000
121.608     79.839     0.000
123.377     79.829     0.000
125.171     79.815     0.000
126.992     79.799     0.000
128.839     79.781     0.000
130.713     79.759     0.000
132.615     79.734     0.000
134.543     79.706     0.000
136.500     79.669     0.000
138.486     79.626     0.000
140.500     79.573     0.000
142.544     79.508     0.000
144.617     79.443     0.000
146.721     79.379     0.000
148.855     79.334     0.000
151.020     79.321     0.000
153.217     79.340     0.000
155.445     79.391     0.000
157.706     79.476     0.000
160.000     79.566     0.000
162.327     79.643     0.000
164.688     79.696     0.000
167.084     79.716     0.000
169.514     79.699     0.000
171.980     79.673     0.000
174.481     79.660     0.000
177.019     79.674     0.000
179.594     79.721     0.000
182.206     79.791     0.000
184.856     79.860     0.000
187.545     79.898     0.000
190.273     79.884     0.000
193.041     79.824     0.000
195.849     79.741     0.000
198.697     79.667     0.000
201.587     79.627     0.000
204.520     79.627     0.000
207.494     79.656     0.000
210.512     79.691     0.000
213.574     79.717     0.000
216.681     79.735     0.000
219.833     79.760     0.000
223.030     79.810     0.000
226.274     79.884     0.000
229.565     79.967     0.000
232.905     80.041     0.000
236.292     80.096     0.000
239.729     80.132     0.000
243.216     80.158     0.000
246.754     80.176     0.000
250.343     80.183     0.000
253.984     80.180     0.000
257.678     80.178     0.000
261.426     80.209     0.000
265.229     80.290     0.000
269.087     80.418     0.000
273.001     80.569     0.000
276.972     80.714     0.000
281.000     80.842     0.000
285.088     80.955     0.000
289.234     81.059     0.000
293.441     81.145     0.000
297.709     81.202     0.000
302.040     81.231     0.000
306.433     81.255     0.000
310.890     81.285     0.000
315.412     81.326     0.000
320.000     81.358     0.000
324.655     81.365     0.000
329.377     81.347     0.000
334.168     81.319     0.000
339.028     81.294     0.000
343.959     81.278     0.000
348.962     81.272     0.000
354.038     81.273     0.000
359.188     81.272     0.000
364.412     81.251     0.000
369.713     81.196     0.000
375.090     81.105     0.000
380.546     80.998     0.000
386.081     80.896     0.000
391.697     80.810     0.000
397.394     80.746     0.000
403.175     80.712     0.000
409.039     80.720     0.000
414.989     80.773     0.000
421.025     80.833     0.000
427.149     80.844     0.000
433.362     80.804     0.000
439.665     80.783     0.000
446.060     80.846     0.000
452.548     80.976     0.000
459.131     81.108     0.000
465.809     81.196     0.000
472.584     81.217     0.000
479.458     81.184     0.000
486.432     81.118     0.000
493.507     81.039     0.000
500.686     80.969     0.000
507.968     80.928     0.000
515.357     80.917     0.000
522.853     80.887     0.000
530.458     80.806     0.000
538.174     80.663     0.000
546.002     80.479     0.000
553.943     80.297     0.000
562.001     80.177     0.000
570.175     80.167     0.000
578.469     80.261     0.000
586.883     80.392     0.000
595.419     80.475     0.000
604.080     80.469     0.000
612.866     80.403     0.000
621.780     80.354     0.000
630.824     80.383     0.000
640.000     80.494     0.000
649.309     80.618     0.000
658.753     80.661     0.000
668.335     80.545     0.000
678.056     80.241     0.000
687.919     79.790     0.000
697.925     79.317     0.000
708.077     79.016     0.000
718.376     79.059     0.000
728.825     79.318     0.000
739.426     79.659     0.000
750.181     79.918     0.000
761.093     80.030     0.000
772.163     80.018     0.000
783.394     79.923     0.000
794.789     79.785     0.000
806.349     79.668     0.000
818.078     79.651     0.000
829.977     79.742     0.000
842.050     79.835     0.000
854.298     79.836     0.000
866.724     79.789     0.000
879.330     79.805     0.000
892.120     79.881     0.000
905.097     79.885     0.000
918.262     79.705     0.000
931.618     79.452     0.000
945.169     79.210     0.000
958.917     79.123     0.000
972.864     79.175     0.000
987.015     79.129     0.000
1001.37     78.769     0.000
1015.94     78.245     0.000
1030.71     77.925     0.000
1045.71     77.855     0.000
1060.92     77.832     0.000
1076.35     77.926     0.000
1092.00     78.163     0.000
1107.89     78.199     0.000
1124.00     77.824     0.000
1140.35     77.330     0.000
1156.94     77.244     0.000
1173.77     77.655     0.000
1190.84     78.135     0.000
1208.16     78.324     0.000
1225.73     78.586     0.000
1243.56     78.897     0.000
1261.65     78.688     0.000
1280.00     78.424     0.000
1298.62     78.904     0.000
1317.51     79.273     0.000
1336.67     79.091     0.000
1356.11     78.759     0.000
1375.84     78.556     0.000
1395.85     78.613     0.000
1416.15     78.848     0.000
1436.75     79.081     0.000
1457.65     79.192     0.000
1478.85     78.886     0.000
1500.36     78.560     0.000
1522.19     78.611     0.000
1544.33     78.507     0.000
1566.79     78.201     0.000
1589.58     78.318     0.000
1612.70     78.579     0.000
1636.16     78.046     0.000
1659.95     77.381     0.000
1684.10     77.456     0.000
1708.60     77.639     0.000
1733.45     77.569     0.000
1758.66     77.745     0.000
1784.24     78.139     0.000
1810.19     78.253     0.000
1836.52     77.691     0.000
1863.24     77.000     0.000
1890.34     76.525     0.000
1917.83     76.093     0.000
1945.73     75.814     0.000
1974.03     75.606     0.000
2002.74     75.315     0.000
2031.87     75.110     0.000
2061.43     75.196     0.000
2091.41     75.657     0.000
2121.83     75.667     0.000
2152.69     74.791     0.000
2184.01     74.153     0.000
2215.77     73.893     0.000
2248.00     73.514     0.000
2280.70     73.628     0.000
2313.87     74.421     0.000
2347.53     75.368     0.000
2381.68     76.136     0.000
2416.32     76.610     0.000
2451.46     77.034     0.000
2487.12     76.951     0.000
2523.30     76.771     0.000
2560.00     77.379     0.000
2597.24     77.869     0.000
2635.01     77.989     0.000
2673.34     78.022     0.000
2712.23     77.787     0.000
2751.68     77.397     0.000
2791.70     77.196     0.000
2832.31     76.982     0.000
2873.50     76.778     0.000
2915.30     76.862     0.000
2957.70     76.703     0.000
3000.72     76.316     0.000
3044.37     75.942     0.000
3088.65     75.779     0.000
3133.58     75.761     0.000
3179.16     75.416     0.000
3225.40     75.089     0.000
3272.31     74.585     0.000
3319.91     73.865     0.000
3368.20     73.360     0.000
3417.19     72.415     0.000
3466.89     71.066     0.000
3517.32     70.353     0.000
3568.48     70.146     0.000
3620.39     69.472     0.000
3673.05     68.725     0.000
3726.47     68.657     0.000
3780.67     68.584     0.000
3835.67     69.481     0.000
3891.46     71.065     0.000
3948.06     71.785     0.000
4005.49     71.858     0.000
4063.75     71.201     0.000
4122.86     71.132     0.000
4182.82     71.949     0.000
4243.66     71.635     0.000
4305.39     70.389     0.000
4368.01     69.308     0.000
4431.55     67.120     0.000
4496.01     64.695     0.000
4561.40     64.251     0.000
4627.75     62.478     0.000
4695.06     58.042     0.000
4763.35     56.303     0.000
4832.64     52.969     0.000
4902.93     53.734     0.000
4974.24     56.941     0.000
5046.60     56.377     0.000
5120.00     58.665     0.000
5194.47     58.508     0.000
5270.03     58.272     0.000
5346.68     62.379     0.000
5424.45     64.628     0.000
5503.35     63.651     0.000
5583.40     63.043     0.000
5664.61     63.778     0.000
5747.01     65.388     0.000
5830.60     66.942     0.000
5915.41     68.273     0.000
6001.45     69.971     0.000
6088.74     70.453     0.000
6177.30     69.870     0.000
6267.15     70.196     0.000
6358.31     71.062     0.000
6450.80     71.456     0.000
6544.62     71.235     0.000
6639.82     70.943     0.000
6736.40     70.673     0.000
6834.38     70.197     0.000
6933.79     69.852     0.000
7034.64     69.875     0.000
7136.96     69.985     0.000
7240.77     70.253     0.000
7346.09     70.493     0.000
7452.94     70.119     0.000
7561.35     70.393     0.000
7671.33     71.672     0.000
7782.91     72.912     0.000
7896.12     73.693     0.000
8010.97     74.233     0.000
8127.49     74.428     0.000
8245.71     74.367     0.000
8365.65     74.566     0.000
8487.33     74.865     0.000
8610.78     75.220     0.000
8736.03     75.366     0.000
8863.09     75.012     0.000
8992.01     74.525     0.000
9122.80     74.086     0.000
9255.50     73.679     0.000
9390.12     73.637     0.000
9526.70     73.704     0.000
9665.27     73.183     0.000
9805.86     72.039     0.000
9948.49     70.659     0.000
10093.2     69.192     0.000
10240.0     67.432     0.000
10388.9     64.928     0.000
10540.1     62.185     0.000
10693.4     60.813     0.000
10848.9     61.063     0.000
11006.7     61.703     0.000
11166.8     62.639     0.000
11329.2     63.935     0.000
11494.0     65.124     0.000
11661.2     66.491     0.000
11830.8     67.863     0.000
12002.9     68.864     0.000
12177.5     69.694     0.000
12354.6     70.622     0.000
12534.3     71.389     0.000
12716.6     71.936     0.000
12901.6     72.422     0.000
13089.2     72.895     0.000
13279.6     73.403     0.000
13472.8     73.984     0.000
13668.8     74.399     0.000
13867.6     74.078     0.000
14069.3     72.563     0.000
14273.9     70.007     0.000
14481.5     66.873     0.000
14692.2     62.462     0.000
14905.9     57.758     0.000
15122.7     58.090     0.000
15342.7     61.419     0.000
15565.8     62.510     0.000
15792.2     61.514     0.000
16021.9     56.094     0.000
16255.0     52.669     0.000
16491.4     56.369     0.000
16731.3     58.094     0.000
16974.7     55.031     0.000
17221.6     55.534     0.000
17472.1     60.182     0.000
17726.2     62.928     0.000
17984.0     62.978     0.000
18245.6     62.172     0.000
18511.0     62.386     0.000
18780.2     63.588     0.000
19053.4     64.393     0.000
19330.5     65.025     0.000
19611.7     66.158     0.000
19897.0     67.628     0.000
20186.4     67.491     0.000
20480.0     67.355     0.000
20777.9     67.218     0.000
21080.1     67.081     0.000
21386.7     66.945     0.000
21697.8     66.808     0.000
22013.4     66.671     0.000
22333.6     66.535     0.000
22658.4     66.398     0.000
22988.0     66.261     0.000
23322.4     66.125     0.000
23661.6     65.988     0.000
24005.8     65.851     0.000
24355.0     65.715     0.000
24709.2     65.578     0.000
25068.6     65.441     0.000
25433.2     65.305     0.000
25803.2     65.168     0.000
26178.5     65.031     0.000
26559.3     64.895     0.000
26945.6     64.758     0.000
27337.5     64.621     0.000
27735.2     64.485     0.000
28138.6     64.348     0.000
28547.9     64.211     0.000
28963.1     64.075     0.000
29384.4     63.938     0.000
29811.8     63.801     0.000
30245.4     63.665     0.000
30685.3     63.528     0.000
31131.7     63.391     0.000
31584.5     63.255     0.000
32043.9     63.118     0.000
32510.0     62.981     0.000
32982.8     62.845     0.000
33462.6     62.708     0.000
33949.3     62.571     0.000
34443.1     62.435     0.000
34944.1     62.298     0.000
35452.4     62.161     0.000
35968.0     62.025     0.000
36491.2     61.888     0.000
37022.0     61.751     0.000
37560.5     61.615     0.000
38106.8     61.478     0.000
38661.1     61.341     0.000
39223.4     61.205     0.000
39793.9     61.068     0.000
