Freq[Hz]     dBSPL  Phase[Deg]
5.00000     64.050     0.000
5.07273     64.132     0.000
5.14651     64.214     0.000
5.22137     64.295     0.000
5.29732     64.377     0.000
5.37437     64.458     0.000
5.45254     64.540     0.000
5.53185     64.621     0.000
5.61231     64.703     0.000
5.69394     64.785     0.000
5.77676     64.866     0.000
5.86079     64.948     0.000
5.94604     65.029     0.000
6.03252     65.111     0.000
6.12027     65.192     0.000
6.20929     65.274     0.000
6.29961     65.356     0.000
6.39124     65.437     0.000
6.48420     65.519     0.000
6.57851     65.600     0.000
6.67420     65.682     0.000
6.77128     65.763     0.000
6.86977     65.845     0.000
6.96969     65.927     0.000
7.07107     66.008     0.000
7.17392     66.090     0.000
7.27827     66.171     0.000
7.38413     66.253     0.000
7.49154     66.335     0.000
7.60050     66.416     0.000
7.71105     66.498     0.000
7.82321     66.579     0.000
7.93701     66.661     0.000
8.05245     66.742     0.000
8.16958     66.824     0.000
8.28841     66.906     0.000
8.40896     66.987     0.000
8.53128     67.069     0.000
8.65537     67.150     0.000
8.78126     67.232     0.000
8.90899     67.313     0.000
9.03857     67.395     0.000
9.17004     67.477     0.000
9.30342     67.558     0.000
9.43874     67.640     0.000
9.57603     67.721     0.000
9.71532     67.803     0.000
9.85663     67.884     0.000
10.0000     67.966     0.000
10.1455     68.048     0.000
10.2930     68.129     0.000
10.4427     68.211     0.000
10.5946     68.292     0.000
10.7487     68.374     0.000
10.9051     68.456     0.000
11.0637     68.537     0.000
11.2246     68.619     0.000
11.3879     68.700     0.000
11.5535     68.782     0.000
11.7216     68.863     0.000
11.8921     68.945     0.000
12.0650     69.027     0.000
12.2405     69.108     0.000
12.4186     69.190     0.000
12.5992     69.271     0.000
12.7825     69.353     0.000
12.9684     69.434     0.000
13.1570     69.516     0.000
13.3484     69.598     0.000
13.5426     69.679     0.000
13.7395     69.761     0.000
13.9394     69.842     0.000
14.1421     69.924     0.000
14.3478     70.006     0.000
14.5565     70.087     0.000
14.7683     70.169     0.000
14.9831     70.250     0.000
15.2010     70.332     0.000
15.4221     70.413     0.000
15.6464     70.495     0.000
15.8740     70.577     0.000
16.1049     70.658     0.000
16.3392     70.740     0.000
16.5768     70.821     0.000
16.8179     70.903     0.000
17.0626     70.984     0.000
17.3107     71.066     0.000
17.5625     71.148     0.000
17.8180     71.229     0.000
18.0771     71.311     0.000
18.3401     71.392     0.000
18.6068     71.474     0.000
18.8775     71.555     0.000
19.1521     71.637     0.000
19.4306     71.719     0.000
19.7133     71.800     0.000
20.0000     71.882     0.000
20.2909     71.963     0.000
20.5860     72.045     0.000
20.8855     72.105     0.000
21.1893     72.165     0.000
21.4975     72.225     0.000
21.8102     72.285     0.000
22.1274     72.345     0.000
22.4492     72.406     0.000
22.7758     72.466     0.000
23.1071     72.526     0.000
23.4432     72.587     0.000
23.7841     72.706     0.000
24.1301     72.826     0.000
24.4811     72.945     0.000
24.8372     73.065     0.000
25.1984     73.184     0.000
25.5649     73.304     0.000
25.9368     73.423     0.000
26.3141     73.542     0.000
26.6968     73.699     0.000
27.0851     73.861     0.000
27.4791     74.023     0.000
27.8788     74.186     0.000
28.2843     74.348     0.000
28.6957     74.510     0.000
29.1131     74.672     0.000
29.5365     74.852     0.000
29.9661     75.045     0.000
30.4020     75.238     0.000
30.8442     75.431     0.000
31.2929     75.625     0.000
31.7480     75.818     0.000
32.2098     76.011     0.000
32.6783     76.222     0.000
33.1536     76.433     0.000
33.6359     76.645     0.000
34.1251     76.857     0.000
34.6215     77.068     0.000
35.1250     77.280     0.000
35.6359     77.499     0.000
36.1543     77.718     0.000
36.6802     77.937     0.000
37.2137     78.156     0.000
37.7550     78.375     0.000
38.3041     78.621     0.000
38.8613     78.908     0.000
39.4265     79.194     0.000
40.0000     79.480     0.000
40.5818     79.767     0.000
41.1721     80.044     0.000
41.7710     80.295     0.000
42.3785     80.546     0.000
42.9949     80.797     0.000
43.6203     81.048     0.000
44.2548     81.279     0.000
44.8985     81.489     0.000
45.5515     81.700     0.000
46.2141     81.910     0.000
46.8863     82.120     0.000
47.5683     82.286     0.000
48.2602     82.453     0.000
48.9621     82.619     0.000
49.6743     82.785     0.000
50.3968     82.915     0.000
51.1299     83.037     0.000
51.8736     83.158     0.000
52.6281     83.280     0.000
53.3936     83.364     0.000
54.1702     83.443     0.000
54.9581     83.521     0.000
55.7575     83.595     0.000
56.5685     83.637     0.000
57.3914     83.678     0.000
58.2261     83.719     0.000
59.0730     83.745     0.000
59.9323     83.758     0.000
60.8040     83.772     0.000
61.6884     83.783     0.000
62.5857     83.780     0.000
63.4960     83.778     0.000
64.4196     83.775     0.000
65.3566     83.768     0.000
66.3073     83.760     0.000
67.2717     83.753     0.000
68.2502     83.746     0.000
69.2429     83.740     0.000
70.2501     83.733     0.000
71.2719     83.728     0.000
72.3086     83.723     0.000
73.3603     83.717     0.000
74.4274     83.707     0.000
75.5099     83.698     0.000
76.6083     83.685     0.000
77.7226     83.666     0.000
78.8531     83.647     0.000
80.0000     83.621     0.000
81.1636     83.592     0.000
82.3442     83.562     0.000
83.5419     83.530     0.000
84.7570     83.497     0.000
85.9899     83.470     0.000
87.2406     83.444     0.000
88.5096     83.425     0.000
89.7970     83.414     0.000
91.1031     83.406     0.000
92.4282     83.410     0.000
93.7726     83.414     0.000
95.1366     83.423     0.000
96.5204     83.432     0.000
97.9243     83.432     0.000
99.3486     83.431     0.000
100.794     83.408     0.000
102.260     83.381     0.000
103.747     83.348     0.000
105.256     83.314     0.000
106.787     83.277     0.000
108.340     83.240     0.000
109.916     83.214     0.000
111.515     83.191     0.000
113.137     83.189     0.000
114.783     83.194     0.000
116.452     83.217     0.000
118.146     83.246     0.000
119.865     83.281     0.000
121.608     83.304     0.000
123.377     83.318     0.000
125.171     83.302     0.000
126.992     83.257     0.000
128.839     83.190     0.000
130.713     83.078     0.000
132.615     82.956     0.000
134.543     82.820     0.000
136.500     82.697     0.000
138.486     82.593     0.000
140.500     82.513     0.000
142.544     82.480     0.000
144.617     82.463     0.000
146.721     82.459     0.000
148.855     82.446     0.000
151.020     82.400     0.000
153.217     82.321     0.000
155.445     82.209     0.000
157.706     82.072     0.000
160.000     81.950     0.000
162.327     81.868     0.000
164.688     81.842     0.000
167.084     81.882     0.000
169.514     81.982     0.000
171.980     82.090     0.000
174.481     82.171     0.000
177.019     82.205     0.000
179.594     82.189     0.000
182.206     82.140     0.000
184.856     82.092     0.000
187.545     82.079     0.000
190.273     82.118     0.000
193.041     82.180     0.000
195.849     82.220     0.000
198.697     82.198     0.000
201.587     82.099     0.000
204.520     81.953     0.000
207.494     81.820     0.000
210.512     81.766     0.000
213.574     81.820     0.000
216.681     81.951     0.000
219.833     82.088     0.000
223.030     82.156     0.000
226.274     82.139     0.000
229.565     82.074     0.000
232.905     82.016     0.000
236.292     81.994     0.000
239.729     81.977     0.000
243.216     81.882     0.000
246.754     81.610     0.000
250.343     81.191     0.000
253.984     80.743     0.000
257.678     80.440     0.000
261.426     80.439     0.000
265.229     80.642     0.000
269.087     80.865     0.000
273.001     80.945     0.000
276.972     80.873     0.000
281.000     80.771     0.000
285.088     80.765     0.000
289.234     80.839     0.000
293.441     80.869     0.000
297.709     80.728     0.000
302.040     80.471     0.000
306.433     80.323     0.000
310.890     80.303     0.000
315.412     80.333     0.000
320.000     80.360     0.000
324.655     80.352     0.000
329.377     80.311     0.000
334.168     80.245     0.000
339.028     80.133     0.000
343.959     79.988     0.000
348.962     79.877     0.000
354.038     79.889     0.000
359.188     80.000     0.000
364.412     80.088     0.000
369.713     80.072     0.000
375.090     79.993     0.000
380.546     79.950     0.000
386.081     79.931     0.000
391.697     79.851     0.000
397.394     79.695     0.000
403.175     79.544     0.000
409.039     79.433     0.000
414.989     79.293     0.000
421.025     79.080     0.000
427.149     78.875     0.000
433.362     78.797     0.000
439.665     78.850     0.000
446.060     78.928     0.000
452.548     78.939     0.000
459.131     78.898     0.000
465.809     78.881     0.000
472.584     78.892     0.000
479.458     78.842     0.000
486.432     78.731     0.000
493.507     78.662     0.000
500.686     78.641     0.000
507.968     78.603     0.000
515.357     78.608     0.000
522.853     78.678     0.000
530.458     78.814     0.000
538.174     78.991     0.000
546.002     79.193     0.000
553.943     79.408     0.000
562.001     79.595     0.000
570.175     79.700     0.000
578.469     79.711     0.000
586.883     79.665     0.000
595.419     79.637     0.000
604.080     79.676     0.000
612.866     79.769     0.000
621.780     79.844     0.000
630.824     79.819     0.000
640.000     79.634     0.000
649.309     79.300     0.000
658.753     78.906     0.000
668.335     78.556     0.000
678.056     78.289     0.000
687.919     78.050     0.000
697.925     77.770     0.000
708.077     77.443     0.000
718.376     77.323     0.000
728.825     77.407     0.000
739.426     77.723     0.000
750.181     78.103     0.000
761.093     78.360     0.000
772.163     78.439     0.000
783.394     78.441     0.000
794.789     78.500     0.000
806.349     78.632     0.000
818.078     78.690     0.000
829.977     78.494     0.000
842.050     77.967     0.000
854.298     77.183     0.000
866.724     76.350     0.000
879.330     75.713     0.000
892.120     75.375     0.000
905.097     75.238     0.000
918.262     75.188     0.000
931.618     75.266     0.000
945.169     75.600     0.000
958.917     76.177     0.000
972.864     76.752     0.000
987.015     77.088     0.000
1001.37     77.241     0.000
1015.94     77.386     0.000
1030.71     77.458     0.000
1045.71     77.235     0.000
1060.92     76.731     0.000
1076.35     76.226     0.000
1092.00     75.961     0.000
1107.89     76.084     0.000
1124.00     76.573     0.000
1140.35     77.110     0.000
1156.94     77.335     0.000
1173.77     77.325     0.000
1190.84     77.347     0.000
1208.16     77.396     0.000
1225.73     77.423     0.000
1243.56     77.520     0.000
1261.65     77.449     0.000
1280.00     76.761     0.000
1298.62     75.714     0.000
1317.51     75.192     0.000
1336.67     75.545     0.000
1356.11     76.348     0.000
1375.84     77.072     0.000
1395.85     77.858     0.000
1416.15     78.584     0.000
1436.75     78.441     0.000
1457.65     77.254     0.000
1478.85     76.399     0.000
1500.36     76.214     0.000
1522.19     75.635     0.000
1544.33     75.475     0.000
1566.79     76.361     0.000
1589.58     77.210     0.000
1612.70     76.985     0.000
1636.16     76.545     0.000
1659.95     76.225     0.000
1684.10     75.628     0.000
1708.60     75.266     0.000
1733.45     75.804     0.000
1758.66     76.242     0.000
1784.24     76.257     0.000
1810.19     76.618     0.000
1836.52     76.612     0.000
1863.24     75.495     0.000
1890.34     74.725     0.000
1917.83     74.435     0.000
1945.73     73.953     0.000
1974.03     73.395     0.000
2002.74     72.928     0.000
2031.87     72.604     0.000
2061.43     72.405     0.000
2091.41     72.045     0.000
2121.83     71.709     0.000
2152.69     71.752     0.000
2184.01     71.779     0.000
2215.77     71.848     0.000
2248.00     71.788     0.000
2280.70     70.553     0.000
2313.87     69.581     0.000
2347.53     68.975     0.000
2381.68     68.589     0.000
2416.32     67.983     0.000
2451.46     66.625     0.000
2487.12     64.492     0.000
2523.30     63.196     0.000
2560.00     64.718     0.000
2597.24     66.891     0.000
2635.01     66.916     0.000
2673.34     66.300     0.000
2712.23     65.772     0.000
2751.68     62.038     0.000
2791.70     59.082     0.000
2832.31     59.969     0.000
2873.50     63.496     0.000
2915.30     66.213     0.000
2957.70     66.838     0.000
3000.72     64.391     0.000
3044.37     61.783     0.000
3088.65     62.735     0.000
3133.58     65.530     0.000
3179.16     64.405     0.000
3225.40     60.581     0.000
3272.31     60.749     0.000
3319.91     60.931     0.000
3368.20     59.384     0.000
3417.19     59.455     0.000
3466.89     61.662     0.000
3517.32     64.657     0.000
3568.48     64.871     0.000
3620.39     64.031     0.000
3673.05     63.408     0.000
3726.47     64.143     0.000
3780.67     64.696     0.000
3835.67     60.415     0.000
3891.46     53.294     0.000
3948.06     54.807     0.000
4005.49     59.198     0.000
4063.75     58.615     0.000
4122.86     57.970     0.000
4182.82     58.570     0.000
4243.66     56.978     0.000
4305.39     54.203     0.000
4368.01     55.093     0.000
4431.55     54.164     0.000
4496.01     53.294     0.000
4561.40     54.946     0.000
4627.75     54.275     0.000
4695.06     54.892     0.000
4763.35     57.922     0.000
4832.64     56.981     0.000
4902.93     55.080     0.000
4974.24     55.733     0.000
5046.60     54.403     0.000
5120.00     54.016     0.000
5194.47     57.139     0.000
5270.03     58.065     0.000
5346.68     57.133     0.000
5424.45     51.034     0.000
5503.35     46.181     0.000
5583.40     50.463     0.000
5664.61     53.686     0.000
5747.01     54.716     0.000
5830.60     55.688     0.000
5915.41     58.062     0.000
6001.45     58.006     0.000
6088.74     55.829     0.000
6177.30     57.200     0.000
6267.15     57.610     0.000
6358.31     58.998     0.000
6450.80     60.374     0.000
6544.62     58.706     0.000
6639.82     58.267     0.000
6736.40     58.903     0.000
6834.38     59.490     0.000
6933.79     59.116     0.000
7034.64     58.957     0.000
7136.96     58.588     0.000
7240.77     57.390     0.000
7346.09     57.966     0.000
7452.94     57.644     0.000
7561.35     55.444     0.000
7671.33     54.750     0.000
7782.91     56.750     0.000
7896.12     56.357     0.000
8010.97     53.750     0.000
8127.49     52.531     0.000
8245.71     54.084     0.000
8365.65     54.462     0.000
8487.33     52.946     0.000
8610.78     55.043     0.000
8736.03     54.964     0.000
8863.09     53.608     0.000
8992.01     54.252     0.000
9122.80     54.740     0.000
9255.50     54.203     0.000
9390.12     52.528     0.000
9526.70     52.004     0.000
9665.27     51.674     0.000
9805.86     51.737     0.000
9948.49     51.921     0.000
10093.2     50.758     0.000
10240.0     51.350     0.000
10388.9     52.106     0.000
10540.1     49.185     0.000
10693.4     47.332     0.000
10848.9     46.981     0.000
11006.7     45.862     0.000
11166.8     45.676     0.000
11329.2     46.400     0.000
11494.0     47.395     0.000
11661.2     47.772     0.000
11830.8     48.336     0.000
12002.9     47.933     0.000
12177.5     47.483     0.000
12354.6     47.722     0.000
12534.3     46.319     0.000
12716.6     45.740     0.000
12901.6     46.928     0.000
13089.2     48.232     0.000
13279.6     48.845     0.000
13472.8     48.474     0.000
13668.8     47.153     0.000
13867.6     46.433     0.000
14069.3     46.388     0.000
14273.9     46.181     0.000
14481.5     46.396     0.000
14692.2     46.327     0.000
14905.9     46.206     0.000
15122.7     45.870     0.000
15342.7     45.245     0.000
15565.8     44.089     0.000
15792.2     40.633     0.000
16021.9     37.282     0.000
16255.0     36.011     0.000
16491.4     36.181     0.000
16731.3     37.519     0.000
16974.7     38.374     0.000
17221.6     38.582     0.000
17472.1     38.438     0.000
17726.2     38.097     0.000
17984.0     38.589     0.000
18245.6     38.169     0.000
18511.0     37.733     0.000
18780.2     37.123     0.000
19053.4     37.433     0.000
19330.5     38.379     0.000
19611.7     36.071     0.000
19897.0     40.843     0.000
20186.4     40.543     0.000
20480.0     40.243     0.000
20777.9     39.943     0.000
21080.1     39.642     0.000
21386.7     39.342     0.000
21697.8     39.042     0.000
22013.4     38.742     0.000
22333.6     38.442     0.000
22658.4     38.142     0.000
22988.0     37.842     0.000
23322.4     37.541     0.000
23661.6     37.241     0.000
24005.8     36.941     0.000
24355.0     36.641     0.000
24709.2     36.341     0.000
25068.6     36.041     0.000
25433.2     35.741     0.000
25803.2     35.440     0.000
26178.5     35.140     0.000
26559.3     34.840     0.000
26945.6     34.540     0.000
27337.5     34.240     0.000
27735.2     33.940     0.000
28138.6     33.639     0.000
28547.9     33.339     0.000
28963.1     33.039     0.000
29384.4     32.739     0.000
29811.8     32.439     0.000
30245.4     32.139     0.000
30685.3     31.839     0.000
31131.7     31.538     0.000
31584.5     31.238     0.000
32043.9     30.938     0.000
32510.0     30.638     0.000
32982.8     30.338     0.000
33462.6     30.038     0.000
33949.3     29.738     0.000
34443.1     29.437     0.000
34944.1     29.137     0.000
35452.4     28.837     0.000
35968.0     28.537     0.000
36491.2     28.237     0.000
37022.0     27.937     0.000
37560.5     27.637     0.000
38106.8     27.336     0.000
38661.1     27.036     0.000
39223.4     26.736     0.000
39793.9     26.436     0.000
