Freq[Hz]     dBSPL  Phase[Deg]
5.00000     19.158  -155.476
5.07273     19.635  -155.803
5.14651     20.112  -156.135
5.22137     20.589  -156.472
5.29732     21.067  -156.814
5.37437     21.544  -157.161
5.45254     22.021  -157.513
5.53185     22.498  -157.870
5.61231     22.975  -158.232
5.69394     23.453  -158.600
5.77676     23.930  -158.973
5.86079     24.407  -159.351
5.94604     24.884  -159.735
6.03252     25.361  -160.124
6.12027     25.839  -160.519
6.20929     26.316  -160.920
6.29961     26.793  -161.326
6.39124     27.270  -161.739
6.48420     27.747  -162.157
6.57851     28.225  -162.582
6.67420     28.702  -163.013
6.77128     29.179  -163.450
6.86977     29.656  -163.893
6.96969     30.133  -164.343
7.07107     30.611  -164.799
7.17392     31.088  -165.262
7.27827     31.565  -165.732
7.38413     32.042  -166.209
7.49154     32.519  -166.692
7.60050     32.996  -167.183
7.71105     33.474  -167.680
7.82321     33.951  -168.185
7.93701     34.428  -168.697
8.05245     34.905  -169.217
8.16958     35.382  -169.744
8.28841     35.860  -170.279
8.40896     36.337  -170.822
8.53128     36.814  -171.373
8.65537     37.291  -171.931
8.78126     37.768  -172.498
8.90899     38.246  -173.073
9.03857     38.723  -173.656
9.17004     39.200  -174.248
9.30342     39.677  -174.849
9.43874     40.154  -175.458
9.57603     40.632  -176.076
9.71532     41.109  -176.703
9.85663     41.586  -177.339
10.0000     42.063  -177.985
10.1455     42.540  -178.639
10.2930     43.018  -179.304
10.4427     43.495  -179.978
10.5946     43.972   179.339
10.7487     44.449   178.645
10.9051     44.926   177.941
11.0637     45.404   177.227
11.2246     45.881   176.502
11.3879     46.358   175.767
11.5535     46.835   175.022
11.7216     47.312   174.265
11.8921     47.790   173.498
12.0650     48.267   172.719
12.2405     48.744   171.929
12.4186     49.221   171.128
12.5992     49.698   170.314
12.7825     50.176   169.489
12.9684     50.653   168.652
13.1570     51.130   167.803
13.3484     51.607   166.942
13.5426     52.084   166.068
13.7395     52.562   165.181
13.9394     53.039   164.281
14.1421     53.516   163.368
14.3478     53.993   162.442
14.5565     54.470   161.503
14.7683     54.948   160.550
14.9831     55.425   159.583
15.2010     55.902   158.602
15.4221     56.379   157.606
15.6464     56.856   156.596
15.8740     57.334   155.572
16.1049     57.811   154.533
16.3392     58.288   153.478
16.5768     58.765   152.408
16.8179     59.242   151.323
17.0626     59.720   150.221
17.3107     60.197   149.104
17.5625     60.674   147.971
17.8180     61.151   146.821
18.0771     61.628   145.654
18.3401     62.106   144.470
18.6068     62.409   143.327
18.8775     62.725   142.268
19.1521     63.057   141.279
19.4306     63.409   140.361
19.7133     63.800   139.508
20.0000     64.229   138.636
20.2909     64.693   137.685
20.5860     65.193   136.604
20.8855     65.702   135.479
21.1893     66.238   134.102
21.4975     66.786   132.500
21.8102     67.339   130.698
22.1274     67.892   128.717
22.4492     68.442   126.580
22.7758     68.990   124.312
23.1071     69.534   121.929
23.4432     70.078   119.433
23.7841     70.678   116.441
24.1301     71.277   113.346
24.4811     71.873   110.153
24.8372     72.466   106.863
25.1984     73.057   103.479
25.5649     73.644   100.002
25.9368     74.229    96.433
26.3141     74.809    92.771
26.6968     75.407    88.572
27.0851     76.004    84.205
27.4791     76.596    79.741
27.8788     77.182    75.177
28.2843     77.762    70.518
28.6957     78.334    65.764
29.1131     78.898    60.916
29.5365     79.457    55.712
29.9661     80.008    50.210
30.4020     80.547    44.618
30.8442     81.074    38.925
31.2929     81.587    33.149
31.7480     82.085    27.295
32.2098     82.569    21.369
32.6783     83.031    14.964
33.1536     83.475     8.485
33.6359     83.901     1.960
34.1251     84.308    -4.610
34.6215     84.694   -11.210
35.1250     85.061   -17.831
35.6359     85.399   -24.809
36.1543     85.716   -31.805
36.6802     86.013   -38.787
37.2137     86.291   -45.744
37.7550     86.551   -52.667
38.3041     86.789   -59.671
38.8613     87.004   -66.825
39.4265     87.204   -73.918
40.0000     87.390   -80.951
40.5818     87.563   -87.916
41.1721     87.721   -94.885
41.7710     87.862  -101.994
42.3785     87.993  -109.026
42.9949     88.116  -115.984
43.6203     88.232  -122.871
44.2548     88.338  -129.808
44.8985     88.435  -136.804
45.5515     88.527  -143.730
46.2141     88.617  -150.589
46.8863     88.703  -157.389
47.5683     88.783  -164.365
48.2602     88.860  -171.283
48.9621     88.936  -178.143
49.6743     89.010   175.052
50.3968     89.084   168.108
51.1299     89.157   161.167
51.8736     89.230   154.268
52.6281     89.297   147.282
53.3936     89.377   140.395
54.1702     89.451   133.379
54.9581     89.527   126.402
55.7575     89.604   119.429
56.5685     89.686   112.255
57.3914     89.767   105.106
58.2261     89.849    97.985
59.0730     89.933    90.739
59.9323     90.019    83.401
60.8040     90.107    76.089
61.6884     90.196    68.746
62.5857     90.288    61.183
63.4960     90.381    53.636
64.4196     90.474    46.107
65.3566     90.567    38.310
66.3073     90.661    30.521
67.2717     90.756    22.750
68.2502     90.850    14.734
69.2429     90.945     6.698
70.2501     91.041    -1.329
71.2719     91.135    -9.616
72.3086     91.229   -17.910
73.3603     91.323   -26.226
74.4274     91.415   -34.782
75.5099     91.507   -43.327
76.6083     91.598   -51.972
77.7226     91.689   -60.772
78.8531     91.781   -69.566
80.0000     91.873   -78.568
81.1636     91.965   -87.624
82.3442     92.058   -96.748
83.5419     92.153  -106.072
84.7570     92.248  -115.393
85.9899     92.345  -124.954
87.2406     92.442  -134.560
88.5096     92.541  -144.308
89.7970     92.641  -154.209
91.1031     92.743  -164.177
92.4282     92.845  -174.387
93.7726     92.947   175.397
95.1366     93.050   164.875
96.5204     93.152   154.353
97.9243     93.253   143.558
99.3486     93.354   132.727
100.794     93.449   121.809
102.260     93.542   110.868
103.747     93.638    99.543
105.256     93.735    88.129
106.787     93.831    76.478
108.340     93.927    64.784
109.916     94.024    52.828
111.515     94.120    40.824
113.137     94.217    28.575
114.783     94.314    16.239
116.452     94.412     3.702
118.146     94.509    -8.997
119.865     94.608   -21.816
121.608     94.706   -34.906
123.377     94.803   -48.091
125.171     94.898   -61.531
126.992     94.991   -75.133
128.839     95.081   -88.880
130.713     95.166  -102.915
132.615     95.248  -117.081
134.543     95.324  -131.462
136.500     95.394  -146.111
138.486     95.468  -160.753
140.500     95.531  -175.688
142.544     95.582   169.013
144.617     95.638   153.691
146.721     95.692   138.229
148.855     95.735   122.412
151.020     95.777   106.418
153.217     95.818    90.274
155.445     95.859    73.963
157.706     95.900    57.394
160.000     95.941    40.597
162.327     95.982    23.583
164.688     96.033     6.490
167.084     96.079   -10.906
169.514     96.122   -28.668
171.980     96.166   -46.647
174.481     96.217   -64.746
177.019     96.266   -83.063
179.594     96.306  -101.711
182.206     96.335  -120.681
184.856     96.360  -139.881
187.545     96.383  -159.215
190.273     96.391  -178.874
193.041     96.392   161.258
195.849     96.388   141.187
198.697     96.375   120.834
201.587     96.365   100.291
204.520     96.362    79.538
207.494     96.369    58.536
210.512     96.384    37.185
213.574     96.410    15.536
216.681     96.451    -6.345
219.833     96.492   -28.638
223.030     96.532   -51.326
226.274     96.572   -74.290
229.565     96.613   -97.521
232.905     96.654  -120.987
236.292     96.697  -144.719
239.729     96.741  -168.774
243.216     96.786   166.883
246.754     96.834   142.192
250.343     96.881   117.084
253.984     96.930    91.612
257.678     96.983    65.763
261.426     97.043    39.356
265.229     97.116    12.546
269.087     97.201   -14.742
273.001     97.297   -42.530
276.972     97.399   -70.769
281.000     97.502   -99.423
285.088     97.602  -128.442
289.234     97.693  -157.644
293.441     97.763   173.052
297.709     97.785   143.845
302.040     97.782   114.226
306.433     97.830    83.361
310.890     97.903    58.390
315.412     98.009    29.569
320.000     98.117     0.408
324.655     98.218   -29.157
329.377     98.304   -59.205
334.168     98.378   -89.920
339.028     98.442  -121.258
343.959     98.502  -153.242
348.962     98.557   174.090
354.038     98.608   140.683
359.188     98.653   106.498
364.412     98.696    71.588
369.713     98.742    36.142
375.090     98.796     0.099
380.546     98.857   -36.638
386.081     98.922   -73.983
391.697     98.990  -112.017
397.394     99.066  -150.773
403.175     99.152   169.883
409.039     99.245   129.733
414.989     99.339    88.802
421.025     99.438    47.196
427.149     99.544     4.883
433.362     99.650   -38.213
439.665     99.745   -82.347
446.060     99.824  -127.386
452.548     99.892  -173.335
459.131     99.963   139.710
465.809    100.056    91.724
472.584    100.189    42.701
479.458    100.362    -7.251
486.432    100.562   -58.267
493.507    100.764  -110.370
500.686    100.947  -163.479
507.968    101.117   132.270
515.357    101.190    87.639
522.853    101.270    31.537
530.458    101.330   -25.656
538.174    101.372   -83.926
546.002    101.392  -143.237
553.943    101.385   156.344
562.001    101.350    94.808
570.175    101.290    32.137
578.469    101.208   -31.660
586.883    101.102   -96.426
595.419    100.962  -162.103
604.080    100.783   131.441
612.866    100.579    64.308
621.780    100.373    -3.506
630.824    100.175   -72.029
640.000     99.991  -141.174
649.309     99.824   149.034
658.753     99.672    78.421
668.335     99.544     6.738
678.056     99.456   -66.076
687.919     99.426  -140.108
697.925     99.468   144.564
708.077     99.573    57.782
718.376     99.688    -9.369
728.825     99.808   -88.382
739.426     99.909  -168.828
750.181     99.989   109.258
761.093    100.045    25.916
772.163    100.063   -58.649
783.394    100.023  -144.464
794.789     99.910   128.428
806.349     99.722    40.061
818.078     99.480   -49.605
829.977     99.207  -140.469
842.050     98.918   127.611
854.298     98.632    34.719
866.724     98.367   -58.992
879.330     98.148  -153.665
892.120     97.979   110.708
905.097     97.865    13.985
918.262     97.813   -89.825
931.618     97.845   176.322
945.169     97.908    75.028
958.917     97.972   -27.922
972.864     98.006  -132.650
987.015     97.999   120.806
1001.37     97.955    12.429
1015.94     97.885   -97.527
1030.71     97.808   151.023
1045.71     97.751    38.218
1060.92     97.742   -76.118
1076.35     97.805   166.046
1092.00     97.915    45.815
1107.89     98.033   -68.549
1124.00     98.146   169.180
1140.35     98.260    41.965
1156.94     98.353   -80.771
1173.77     98.395   156.055
1190.84     98.349    22.664
1208.16     98.205  -110.618
1225.73     98.027   116.411
1243.56     97.896   -15.693
1261.65     97.796  -146.640
1280.00     97.742    72.396
1298.62     97.914   -69.398
1317.51     98.334   148.042
1336.67     98.792    13.361
1356.11     99.272  -140.194
1375.84     99.651    63.512
1395.85     99.862   -83.198
1416.15     99.961   129.409
1436.75     99.993   -28.340
1457.65     99.917   163.722
1478.85     99.786    -4.168
1500.36     99.717  -161.340
1522.19     99.640    21.118
1544.33     99.513  -135.989
1566.79     99.357    55.192
1589.58     99.207  -124.742
1612.70     98.965    55.314
1636.16     98.529  -124.528
1659.95     97.919    55.701
1684.10     97.104  -133.590
1708.60     96.214    34.241
1733.45     95.518  -144.730
1758.66     95.064    36.297
1784.24     94.815  -158.509
1810.19     94.690     5.837
1836.52     94.598   167.948
1863.24     94.481   -31.128
1890.34     94.259   129.387
1917.83     93.967   -86.234
1945.73     93.787    67.421
1974.03     93.710  -138.425
2002.74     93.706     0.104
2031.87     93.734   136.086
2061.43     93.674   -89.185
2091.41     93.252    35.028
2121.83     92.324   151.235
2152.69     91.257   -77.085
2184.01     90.145    54.037
2215.77     89.099  -176.652
2248.00     88.075   -58.576
2280.70     86.702    46.935
2313.87     84.703   146.773
2347.53     81.714  -104.211
2381.68     78.811    24.312
2416.32     78.076   157.351
2451.46     79.675   -79.325
2487.12     81.733    25.028
2523.30     84.005   114.448
2560.00     86.511  -153.560
2597.24     88.679   -68.202
2635.01     90.048    10.563
2673.34     90.932    67.531
2712.23     91.687   123.426
2751.68     92.552  -179.715
2791.70     93.441  -113.984
2832.31     94.098   -56.908
2873.50     94.558   -11.911
2915.30     94.978    18.755
2957.70     95.352    50.330
3000.72     95.530    88.486
3044.37     95.278   107.411
3088.65     94.408   126.366
3133.58     93.097   129.357
3179.16     91.812   137.749
3225.40     90.604   154.304
3272.31     88.924   156.640
3319.91     86.654   143.996
3368.20     84.157   139.044
3417.19     81.418   146.485
3466.89     77.556   154.397
3517.32     74.233   155.704
3568.48     74.696   170.479
3620.39     78.306   179.083
3673.05     82.515   148.336
3726.47     85.129    91.599
3780.67     86.388    39.150
3835.67     87.199    -5.287
3891.46     88.025   -63.086
3948.06     89.055  -142.112
4005.49     90.060   141.259
4063.75     90.683    57.359
4122.86     90.677   -32.540
4182.82     90.205  -127.959
4243.66     89.807   138.383
4305.39     90.033    40.468
4368.01     90.767   -65.632
4431.55     91.685  -166.837
4496.01     92.981    69.962
4561.40     94.496   -76.019
4627.75     95.828   143.206
4695.06     97.008    -9.923
4763.35     97.897  -175.491
4832.64     98.255    26.165
4902.93     98.142  -151.401
4974.24     97.914    13.312
5046.60     97.747  -172.454
5120.00     97.418   -11.264
5194.47     97.026   149.324
5270.03     96.886   -47.710
5346.68     96.870    78.843
5424.45     96.776  -147.094
5503.35     96.591   -23.514
5583.40     96.316    76.204
5664.61     95.897  -166.548
5747.01     94.954   -76.072
5830.60     93.738    14.789
5915.41     92.705    98.031
6001.45     91.833   161.306
6088.74     90.926  -132.592
6177.30     89.220   -82.690
6267.15     87.916   -16.141
6358.31     88.534    16.250
6450.80     89.093    45.364
6544.62     88.528    63.200
6639.82     89.173    77.893
6736.40     91.200    74.628
6834.38     92.557    47.782
6933.79     92.952    25.819
7034.64     93.538   -20.185
7136.96     94.579   -73.722
7240.77     95.368  -148.178
7346.09     95.850   129.169
7452.94     95.765    29.365
7561.35     94.922   -79.317
7671.33     94.068   163.702
7782.91     92.641    28.643
7896.12     90.412  -104.448
8010.97     88.420    94.150
8127.49     87.716   -66.364
8245.71     87.183   104.449
8365.65     84.472  -120.963
8487.33     80.793   -36.673
8610.78     80.265    29.737
8736.03     82.247   118.028
8863.09     83.676  -161.245
8992.01     85.136   -78.693
9122.80     87.381    -4.541
9255.50     89.597    37.428
9390.12     90.890    74.271
9526.70     91.649   110.285
9665.27     93.382   137.761
9805.86     95.945   142.300
9948.49     97.690   119.044
10093.2     97.748    83.888
10240.0     97.358    43.562
10388.9     97.608     1.846
10540.1     97.919   -68.426
10693.4     97.619  -160.983
10848.9     97.190    95.889
11006.7     96.883   -25.144
11166.8     96.097  -171.863
11329.2     94.964    30.091
11494.0     92.858  -140.587
11661.2     89.669    34.007
11830.8     86.444  -159.714
12002.9     84.637     5.426
12177.5     85.741   146.346
12354.6     87.401  -116.124
12534.3     86.832   -50.493
12716.6     84.650   -11.541
12901.6     80.798   -12.818
13089.2     79.983   -70.442
13279.6     84.438  -137.275
13472.8     87.805   162.525
13668.8     86.805    98.805
13867.6     85.244    51.949
14069.3     87.346   -21.431
14273.9     90.264  -139.819
14481.5     90.777    83.868
14692.2     90.522   -80.823
14905.9     89.816    92.599
15122.7     88.786  -114.025
15342.7     87.605    16.824
15565.8     85.911   127.175
15792.2     84.644  -153.065
16021.9     84.026   -97.921
16255.0     84.469   -71.968
16491.4     85.346   -82.120
16731.3     85.568  -133.993
16974.7     85.672   144.498
17221.6     85.570    54.015
17472.1     85.449   -65.608
17726.2     84.592   140.281
17984.0     82.161   -26.556
18245.6     80.344   156.231
18511.0     79.450   -59.432
18780.2     77.559    40.737
19053.4     72.361   104.299
19330.5     65.997    78.108
19611.7     66.978    12.527
19897.0     71.829   -25.992
20186.4     73.265   -64.365
20480.0     73.413  -117.111
20777.9     73.411   162.955
21080.1     73.405    54.927
21386.7     73.418   -90.566
21697.8     73.399   125.232
22013.4     72.983  -161.320
22333.6     72.567   -87.872
22658.4     72.150   -14.413
22988.0     71.734    59.030
23322.4     71.317   132.471
23661.6     70.901  -154.073
24005.8     70.484   -80.632
24355.0     70.068    -7.190
24709.2     69.651    66.270
25068.6     69.235   139.718
25433.2     68.819  -146.826
25803.2     68.402   -73.391
26178.5     67.986     0.061
26559.3     67.569    73.504
26945.6     67.153   146.956
27337.5     66.736  -139.590
27735.2     66.320   -66.154
28138.6     65.904     7.298
28547.9     65.487    80.743
28963.1     65.071   154.199
29384.4     64.654  -132.357
29811.8     64.238   -58.907
30245.4     63.821    14.545
30685.3     63.405    87.999
31131.7     62.989   161.435
31584.5     62.572  -125.113
32043.9     62.156   -51.663
32510.0     61.739    21.784
32982.8     61.323    95.242
33462.6     60.906   168.682
33949.3     60.490  -117.865
34443.1     60.074   -44.416
34944.1     59.657    29.031
35452.4     59.241   102.475
35968.0     58.824   175.933
36491.2     58.408  -110.623
37022.0     57.991   -37.178
37560.5     57.575    36.270
38106.8     57.158   109.723
38661.1     56.742  -176.832
39223.4     56.326  -103.379
39793.9     55.909   -29.928
