Freq[Hz]     dBSPL  Phase[Deg]
5.00000     14.364  -155.534
5.07273     14.848  -155.837
5.14651     15.333  -156.144
5.22137     15.817  -156.455
5.29732     16.301  -156.771
5.37437     16.786  -157.092
5.45254     17.270  -157.417
5.53185     17.754  -157.747
5.61231     18.239  -158.082
5.69394     18.723  -158.422
5.77676     19.207  -158.767
5.86079     19.692  -159.116
5.94604     20.176  -159.471
6.03252     20.660  -159.831
6.12027     21.145  -160.196
6.20929     21.629  -160.567
6.29961     22.113  -160.942
6.39124     22.598  -161.324
6.48420     23.082  -161.711
6.57851     23.566  -162.103
6.67420     24.051  -162.501
6.77128     24.535  -162.905
6.86977     25.020  -163.315
6.96969     25.504  -163.731
7.07107     25.988  -164.153
7.17392     26.473  -164.581
7.27827     26.957  -165.015
7.38413     27.441  -165.456
7.49154     27.926  -165.903
7.60050     28.410  -166.356
7.71105     28.894  -166.816
7.82321     29.379  -167.283
7.93701     29.863  -167.757
8.05245     30.347  -168.237
8.16958     30.832  -168.725
8.28841     31.316  -169.219
8.40896     31.800  -169.721
8.53128     32.285  -170.230
8.65537     32.769  -170.746
8.78126     33.253  -171.270
8.90899     33.738  -171.802
9.03857     34.222  -172.341
9.17004     34.706  -172.888
9.30342     35.191  -173.443
9.43874     35.675  -174.006
9.57603     36.159  -174.578
9.71532     36.644  -175.157
9.85663     37.128  -175.745
10.0000     37.612  -176.342
10.1455     38.097  -176.947
10.2930     38.581  -177.562
10.4427     39.065  -178.185
10.5946     39.550  -178.817
10.7487     40.034  -179.458
10.9051     40.518   179.891
11.0637     41.003   179.231
11.2246     41.487   178.562
11.3879     41.971   177.882
11.5535     42.456   177.193
11.7216     42.940   176.493
11.8921     43.424   175.784
12.0650     43.909   175.064
12.2405     44.393   174.334
12.4186     44.877   173.593
12.5992     45.362   172.841
12.7825     45.846   172.078
12.9684     46.330   171.305
13.1570     46.815   170.520
13.3484     47.299   169.723
13.5426     47.783   168.915
13.7395     48.268   168.095
13.9394     48.752   167.264
14.1421     49.236   166.420
14.3478     49.721   165.564
14.5565     50.205   164.695
14.7683     50.689   163.814
14.9831     51.174   162.920
15.2010     51.658   162.013
15.4221     52.143   161.093
15.6464     52.627   160.160
15.8740     53.111   159.213
16.1049     53.596   158.252
16.3392     54.080   157.277
16.5768     54.564   156.288
16.8179     55.049   155.284
17.0626     55.533   154.266
17.3107     56.017   153.233
17.5625     56.502   152.186
17.8180     56.986   151.123
18.0771     57.470   150.044
18.3401     57.955   148.950
18.6068     58.265   147.897
18.8775     58.588   146.930
19.1521     58.927   146.035
19.4306     59.287   145.212
19.7133     59.684   144.455
20.0000     60.120   143.680
20.2909     60.592   142.828
20.5860     61.099   141.847
20.8855     61.613   140.819
21.1893     62.153   139.538
21.4975     62.705   138.032
21.8102     63.262   136.326
22.1274     63.819   134.441
22.4492     64.375   132.401
22.7758     64.926   130.230
23.1071     65.475   127.943
23.4432     66.023   125.543
23.7841     66.636   122.662
24.1301     67.246   119.679
24.4811     67.855   116.598
24.8372     68.460   113.420
25.1984     69.063   110.148
25.5649     69.662   106.783
25.9368     70.258   103.325
26.3141     70.851    99.775
26.6968     71.466    95.678
27.0851     72.080    91.413
27.4791     72.690    87.050
27.8788     73.293    82.588
28.2843     73.890    78.030
28.6957     74.480    73.378
29.1131     75.061    68.631
29.5365     75.639    63.521
29.9661     76.210    58.109
30.4020     76.770    52.605
30.8442     77.316    47.001
31.2929     77.849    41.315
31.7480     78.368    35.550
32.2098     78.872    29.713
32.6783     79.356    23.387
33.1536     79.822    16.987
33.6359     80.270    10.540
34.1251     80.699     4.049
34.6215     81.107    -2.473
35.1250     81.496    -9.015
35.6359     81.857   -15.926
36.1543     82.197   -22.857
36.6802     82.517   -29.773
37.2137     82.818   -36.663
37.7550     83.101   -43.519
38.3041     83.362   -50.464
38.8613     83.601   -57.568
39.4265     83.824   -64.610
40.0000     84.033   -71.592
40.5818     84.230   -78.507
41.1721     84.411   -85.431
41.7710     84.575   -92.510
42.3785     84.728   -99.512
42.9949     84.874  -106.440
43.6203     85.013  -113.297
44.2548     85.140  -120.216
44.8985     85.257  -127.205
45.5515     85.370  -134.124
46.2141     85.479  -140.977
46.8863     85.586  -147.771
47.5683     85.682  -154.762
48.2602     85.775  -161.695
48.9621     85.867  -168.571
49.6743     85.958  -175.390
50.3968     86.042   177.639
51.1299     86.126   170.670
51.8736     86.209   163.742
52.6281     86.286   156.727
53.3936     86.371   149.812
54.1702     86.450   142.768
54.9581     86.529   135.763
55.7575     86.610   128.764
56.5685     86.689   121.576
57.3914     86.769   114.414
58.2261     86.849   107.280
59.0730     86.930   100.034
59.9323     87.011    92.706
60.8040     87.094    85.404
61.6884     87.178    78.075
62.5857     87.265    70.545
63.4960     87.353    63.031
64.4196     87.441    55.533
65.3566     87.530    47.779
66.3073     87.621    40.032
67.2717     87.712    32.303
68.2502     87.805    24.323
69.2429     87.899    16.321
70.2501     87.995     8.329
71.2719     88.089     0.055
72.3086     88.183    -8.228
73.3603     88.278   -16.536
74.4274     88.370   -25.111
75.5099     88.462   -33.676
76.6083     88.553   -42.351
77.7226     88.641   -51.197
78.8531     88.730   -60.038
80.0000     88.815   -69.099
81.1636     88.900   -78.216
82.3442     88.983   -87.401
83.5419     89.064   -96.785
84.7570     89.146  -106.166
85.9899     89.225  -115.772
87.2406     89.304  -125.419
88.5096     89.382  -135.195
89.7970     89.460  -145.109
91.1031     89.538  -155.081
92.4282     89.615  -165.272
93.7726     89.693  -175.466
95.1366     89.769   174.064
96.5204     89.845   163.594
97.9243     89.920   152.874
99.3486     89.994   142.121
100.794     90.063   131.293
102.260     90.130   120.444
103.747     90.199   109.214
105.256     90.268    97.895
106.787     90.335    86.337
108.340     90.401    74.736
109.916     90.464    62.867
111.515     90.525    50.950
113.137     90.583    38.784
114.783     90.638    26.531
116.452     90.690    14.078
118.146     90.738     1.473
119.865     90.783   -11.248
121.608     90.822   -24.216
123.377     90.859   -37.268
125.171     90.889   -50.544
126.992     90.917   -63.958
128.839     90.941   -77.496
130.713     90.960   -91.281
132.615     90.977  -105.178
134.543     90.989  -119.265
136.500     90.999  -133.594
138.486     91.015  -147.903
140.500     91.022  -162.492
142.544     91.022  -177.431
144.617     91.028   167.615
146.721     91.034   152.524
148.855     91.030   137.085
151.020     91.026   121.473
153.217     91.021   105.717
155.445     91.014    89.799
157.706     91.006    73.633
160.000     90.996    57.248
162.327     90.984    40.654
164.688     90.979    23.991
167.084     90.969     7.036
169.514     90.952   -10.275
171.980     90.934   -27.796
174.481     90.923   -45.434
177.019     90.910   -63.294
179.594     90.887   -81.494
182.206     90.853  -100.032
184.856     90.814  -118.821
187.545     90.772  -137.767
190.273     90.710  -157.060
193.041     90.636  -176.566
195.849     90.549   163.739
198.697     90.447   143.798
201.587     90.342   123.731
204.520     90.240   103.534
207.494     90.148    83.172
210.512     90.065    62.539
213.574     89.997    41.661
216.681     89.943    20.585
219.833     89.889    -0.883
223.030     89.828   -22.721
226.274     89.762   -44.796
229.565     89.697   -67.092
232.905     89.636   -89.585
236.292     89.584  -112.335
239.729     89.542  -135.429
243.216     89.512  -158.855
246.754     89.492   177.308
250.343     89.473   153.011
253.984     89.456   128.318
257.678     89.437   103.243
261.426     89.410    77.661
265.229     89.380    51.793
269.087     89.348    25.616
273.001     89.323    -0.861
276.972     89.306   -27.655
281.000     89.298   -54.852
285.088     89.287   -82.525
289.234     89.262  -110.526
293.441     89.214  -138.755
297.709     89.145  -167.069
302.040     89.090   163.819
306.433     89.119   132.718
310.890     89.187   107.081
315.412     89.287    76.904
320.000     89.366    45.742
324.655     89.377    13.599
329.377     89.281   -19.308
334.168     89.079   -52.798
339.028     88.787   -86.439
343.959     88.457  -120.055
348.962     88.136  -153.646
354.038     87.868   172.674
359.188     87.688   138.594
364.412     87.612   103.791
369.713     87.635    68.033
375.090     87.719    30.886
380.546     87.795    -7.927
386.081     87.803   -48.157
391.697     87.723   -89.596
397.394     87.569  -131.996
403.175     87.379  -175.011
409.039     87.187   141.250
414.989     87.020    96.828
421.025     86.890    51.775
427.149     86.774     6.019
433.362     86.620   -40.466
439.665     86.374   -87.777
446.060     86.021  -135.603
452.548     85.607   176.051
459.131     85.211   126.830
465.809     84.908    76.282
472.584     84.732    24.094
479.458     84.657   -29.471
486.432     84.624   -84.200
493.507     84.554  -139.870
500.686     84.379   163.523
507.968     83.976    94.667
515.357     83.622    46.413
522.853     83.180   -14.799
530.458     82.779   -77.411
538.174     82.427  -140.661
546.002     82.051   156.052
553.943     81.551    92.592
562.001     80.875    28.259
570.175     80.097   -37.814
578.469     79.376  -105.741
586.883     78.813  -174.374
595.419     78.299   118.073
604.080     77.623    53.017
612.866     76.615   -10.035
621.780     75.156   -73.411
630.824     73.205  -140.216
640.000     71.143   146.256
649.309     69.881    65.716
658.753     70.021   -16.003
668.335     71.042   -92.622
678.056     71.973  -164.122
687.919     72.384   125.786
697.925     72.235    53.617
708.077     71.712   -34.141
718.376     71.552  -105.127
728.825     71.742   170.944
739.426     72.099    87.717
750.181     72.059     4.725
761.093     71.433   -82.456
772.163     70.949  -177.071
783.394     71.449    84.756
794.789     72.660   -10.036
806.349     73.537  -100.896
818.078     73.757   166.542
829.977     73.911    68.865
842.050     74.626   -31.761
854.298     75.828  -131.306
866.724     77.042   131.136
879.330     78.035    33.807
892.120     78.793   -64.613
905.097     79.379  -165.083
918.262     79.999    85.869
931.618     80.663   -12.516
945.169     81.338  -117.616
958.917     81.784   136.385
972.864     81.987    28.157
987.015     82.116   -82.610
1001.37     82.249   165.107
1015.94     82.264    52.371
1030.71     81.998   -61.066
1045.71     81.416  -176.207
1060.92     80.739    65.433
1076.35     80.510   -56.894
1092.00     80.909  -178.735
1107.89     81.589    70.205
1124.00     82.262   -45.799
1140.35     82.979  -167.768
1156.94     83.833    72.165
1173.77     84.799   -50.045
1190.84     85.805   175.347
1208.16     86.746    39.298
1225.73     87.555   -97.128
1243.56     88.067   126.081
1261.65     88.400   -11.920
1280.00     88.828  -160.409
1298.62     89.159    53.394
1317.51     89.177   -91.236
1336.67     89.043   133.253
1356.11     88.780   -20.075
1375.84     88.620  -176.180
1395.85     88.824    37.406
1416.15     89.238  -108.041
1436.75     89.543    96.783
1457.65     89.580   -70.207
1478.85     89.494   120.430
1500.36     89.456   -39.272
1522.19     89.363   140.561
1544.33     89.176   -17.467
1566.79     88.899   175.271
1589.58     88.527    -0.023
1612.70     88.135  -173.515
1636.16     87.891    13.799
1659.95     87.836  -159.803
1684.10     88.182    13.002
1708.60     88.999   179.723
1733.45     89.825    -2.793
1758.66     90.507   172.278
1784.24     90.904   -30.591
1810.19     90.902   125.050
1836.52     90.680   -80.146
1863.24     90.241    75.616
1890.34     89.463  -126.665
1917.83     88.350    15.209
1945.73     87.634   167.319
1974.03     87.343   -36.924
2002.74     87.129   105.384
2031.87     86.991  -115.787
2061.43     86.850    20.355
2091.41     86.396   144.431
2121.83     85.549   -99.758
2152.69     84.468    32.523
2184.01     83.230   165.896
2215.77     82.161   -61.655
2248.00     81.771    59.585
2280.70     81.784   167.985
2313.87     81.572   -93.451
2347.53     80.999     5.632
2381.68     79.923   112.363
2416.32     78.392  -141.477
2451.46     75.591   -37.009
2487.12     72.393    62.512
2523.30     71.507   155.574
2560.00     72.987   -96.414
2597.24     74.929     9.785
2635.01     76.879   101.882
2673.34     79.372   170.366
2712.23     80.477  -128.338
2751.68     81.049   -75.989
2791.70     81.866   -13.915
2832.31     82.198    45.016
2873.50     82.002    93.249
2915.30     81.469   126.724
2957.70     81.041   162.587
3000.72     80.873  -152.624
3044.37     80.694  -122.700
3088.65     79.674   -96.235
3133.58     78.373   -92.046
3179.16     77.212   -79.281
3225.40     75.664   -49.553
3272.31     74.257   -29.399
3319.91     74.204   -22.677
3368.20     75.316    -8.831
3417.19     76.797     2.827
3466.89     78.555    -4.194
3517.32     80.227   -41.725
3568.48     81.120   -80.528
3620.39     81.003  -108.157
3673.05     79.853  -155.239
3726.47     77.862   145.820
3780.67     75.186   108.491
3835.67     73.196    83.838
3891.46     73.497    36.277
3948.06     75.047   -36.638
4005.49     76.652  -106.519
4063.75     78.454   173.794
4122.86     79.555    84.409
4182.82     79.308   -15.975
4243.66     78.595  -121.511
4305.39     77.862   124.983
4368.01     76.389     1.292
4431.55     73.766  -115.007
4496.01     70.539   124.866
4561.40     69.010    -4.456
4627.75     69.702  -138.507
4695.06     68.867    72.653
4763.35     62.499   -64.246
4832.64     57.607   -61.847
4902.93     59.632   -19.747
4974.24     63.644  -122.709
5046.60     67.405    64.256
5120.00     70.957  -140.979
5194.47     72.318     1.852
5270.03     72.244   152.308
5346.68     71.015   -86.520
5424.45     68.348    50.932
5503.35     65.907  -163.366
5583.40     67.016   -40.956
5664.61     69.213    76.763
5747.01     70.345   162.895
5830.60     70.989  -111.936
5915.41     70.168   -49.569
6001.45     67.291    -9.024
6088.74     64.351    60.337
6177.30     64.589   115.243
6267.15     67.681   158.343
6358.31     70.245   156.106
6450.80     70.484   152.182
6544.62     68.389   126.336
6639.82     63.133    67.574
6736.40     61.020   -45.951
6834.38     65.367  -155.158
6933.79     69.436   162.303
7034.64     72.083   100.791
7136.96     73.167    26.979
7240.77     72.685   -54.922
7346.09     71.973  -135.223
7452.94     69.852   128.387
7561.35     66.929    33.353
7671.33     66.020   -54.897
7782.91     67.156  -168.658
7896.12     66.056    54.193
8010.97     61.121   -68.672
8127.49     63.912  -164.226
8245.71     71.751    31.398
8365.65     73.922  -171.478
8487.33     73.451   -26.157
8610.78     72.638   126.760
8736.03     73.855   -73.281
8863.09     77.180    46.188
8992.01     79.736   137.814
9122.80     79.690  -143.321
9255.50     78.011   -85.123
9390.12     76.343   -27.304
9526.70     74.779    22.599
9665.27     72.478    54.144
9805.86     69.176    77.821
9948.49     68.703    88.921
10093.2     69.517    66.004
10240.0     68.017    23.516
10388.9     67.959   -24.981
10540.1     69.036  -116.136
10693.4     68.828   129.902
10848.9     69.147    21.670
11006.7     71.353  -101.029
11166.8     72.771   103.814
11329.2     72.108   -55.022
11494.0     71.883   144.188
11661.2     73.015   -38.994
11830.8     74.352   104.959
12002.9     73.828  -133.446
12177.5     70.909   -26.034
12354.6     68.271    71.389
12534.3     66.557   149.624
12716.6     63.850  -161.075
12901.6     61.193   -93.055
13089.2     64.479   -41.393
13279.6     70.014   -51.287
13472.8     71.526   -92.502
13668.8     71.745  -147.519
13867.6     71.791   151.606
14069.3     72.196    58.815
14273.9     71.999   -63.279
14481.5     69.194   158.408
14692.2     62.395    20.891
14905.9     61.712  -104.201
15122.7     67.473    74.544
15342.7     68.859  -164.353
15565.8     67.668   -58.086
15792.2     65.886    13.491
16021.9     61.542    55.000
16255.0     55.781    70.365
16491.4     52.528    34.606
16731.3     50.863   -27.037
16974.7     52.977   -69.798
17221.6     56.915  -122.578
17472.1     59.856   143.842
17726.2     63.000     9.139
17984.0     63.511  -160.921
18245.6     61.232    17.286
18511.0     59.475   178.483
18780.2     59.940   -54.275
19053.4     61.169    44.155
19330.5     61.333    96.479
19611.7     58.663   125.128
19897.0     56.297   155.206
20186.4     56.247   153.628
20480.0     56.455   107.216
20777.9     56.453    27.281
21080.1     56.447   -80.734
21386.7     56.460   133.761
21697.8     56.440   -10.452
22013.4     56.056    78.002
22333.6     55.671   166.454
22658.4     55.287  -105.080
22988.0     54.903   -16.633
23322.4     54.519    71.812
23661.6     54.135   160.274
24005.8     53.750  -111.282
24355.0     53.366   -22.835
24709.2     52.982    65.631
25068.6     52.598   154.086
25433.2     52.214  -117.453
25803.2     51.830   -29.015
26178.5     51.445    59.443
26559.3     51.061   147.890
26945.6     50.677  -123.653
27337.5     50.293   -35.192
27735.2     49.909    53.247
28138.6     49.525   141.704
28547.9     49.140  -129.846
28963.1     48.756   -41.384
29384.4     48.372    47.065
29811.8     47.988   135.519
30245.4     47.604  -136.022
30685.3     47.219   -47.563
31131.7     46.835    40.877
31584.5     46.451   129.334
32043.9     46.067  -142.211
32510.0     45.683   -53.760
32982.8     45.299    34.707
33462.6     44.914   123.151
33949.3     44.530  -148.392
34443.1     44.146   -59.937
34944.1     43.762    28.514
35452.4     43.378   116.963
35968.0     42.994  -154.572
36491.2     42.609   -66.124
37022.0     42.225    22.325
37560.5     41.841   110.779
38106.8     41.457  -160.764
38661.1     41.073   -72.313
39223.4     40.688    16.146
39793.9     40.304   104.602
