Freq[Hz]     dBSPL  Phase[Deg]
5.00000     15.320  -165.435
5.07273     15.792  -165.719
5.14651     16.264  -166.007
5.22137     16.737  -166.298
5.29732     17.209  -166.595
5.37437     17.681  -166.895
5.45254     18.153  -167.200
5.53185     18.626  -167.509
5.61231     19.098  -167.823
5.69394     19.570  -168.141
5.77676     20.042  -168.464
5.86079     20.514  -168.791
5.94604     20.987  -169.124
6.03252     21.459  -169.461
6.12027     21.931  -169.803
6.20929     22.403  -170.150
6.29961     22.876  -170.502
6.39124     23.348  -170.860
6.48420     23.820  -171.222
6.57851     24.292  -171.590
6.67420     24.764  -171.963
6.77128     25.237  -172.341
6.86977     25.709  -172.725
6.96969     26.181  -173.115
7.07107     26.653  -173.510
7.17392     27.126  -173.911
7.27827     27.598  -174.318
7.38413     28.070  -174.731
7.49154     28.542  -175.149
7.60050     29.014  -175.574
7.71105     29.487  -176.005
7.82321     29.959  -176.443
7.93701     30.431  -176.886
8.05245     30.903  -177.336
8.16958     31.376  -177.793
8.28841     31.848  -178.256
8.40896     32.320  -178.726
8.53128     32.792  -179.203
8.65537     33.264  -179.687
8.78126     33.737   179.822
8.90899     34.209   179.324
9.03857     34.681   178.819
9.17004     35.153   178.306
9.30342     35.626   177.786
9.43874     36.098   177.259
9.57603     36.570   176.724
9.71532     37.042   176.180
9.85663     37.515   175.630
10.0000     37.987   175.071
10.1455     38.459   174.503
10.2930     38.931   173.928
10.4427     39.403   173.344
10.5946     39.876   172.752
10.7487     40.348   172.151
10.9051     40.820   171.542
11.0637     41.292   170.923
11.2246     41.765   170.296
11.3879     42.237   169.659
11.5535     42.709   169.014
11.7216     43.181   168.358
11.8921     43.653   167.694
12.0650     44.126   167.019
12.2405     44.598   166.335
12.4186     45.070   165.641
12.5992     45.542   164.937
12.7825     46.015   164.222
12.9684     46.487   163.497
13.1570     46.959   162.762
13.3484     47.431   162.016
13.5426     47.903   161.259
13.7395     48.376   160.491
13.9394     48.848   159.712
14.1421     49.320   158.921
14.3478     49.792   158.119
14.5565     50.265   157.306
14.7683     50.737   156.480
14.9831     51.209   155.643
15.2010     51.681   154.793
15.4221     52.153   153.931
15.6464     52.626   153.056
15.8740     53.098   152.169
16.1049     53.570   151.269
16.3392     54.042   150.355
16.5768     54.515   149.429
16.8179     54.987   148.489
17.0626     55.459   147.535
17.3107     55.931   146.567
17.5625     56.403   145.586
17.8180     56.876   144.590
18.0771     57.348   143.579
18.3401     57.820   142.554
18.6068     58.119   141.572
18.8775     58.430   140.676
19.1521     58.757   139.853
19.4306     59.104   139.103
19.7133     59.489   138.420
20.0000     59.913   137.720
20.2909     60.373   136.945
20.5860     60.868   136.042
20.8855     61.368   135.086
21.1893     61.895   133.876
21.4975     62.433   132.443
21.8102     62.977   130.809
22.1274     63.520   128.995
22.4492     64.062   127.027
22.7758     64.600   124.928
23.1071     65.136   122.713
23.4432     65.670   120.385
23.7841     66.273   117.595
24.1301     66.874   114.703
24.4811     67.473   111.712
24.8372     68.069   108.625
25.1984     68.661   105.443
25.5649     69.251   102.169
25.9368     69.838    98.802
26.3141     70.421    95.343
26.6968     71.030    91.319
27.0851     71.640    87.124
27.4791     72.245    82.831
27.8788     72.844    78.439
28.2843     73.436    73.951
28.6957     74.022    69.369
29.1131     74.599    64.692
29.5365     75.173    59.631
29.9661     75.742    54.251
30.4020     76.300    48.781
30.8442     76.844    43.209
31.2929     77.375    37.556
31.7480     77.891    31.823
32.2098     78.393    26.019
32.6783     78.874    19.692
33.1536     79.338    13.289
33.6359     79.783     6.839
34.1251     80.209     0.345
34.6215     80.615    -6.180
35.1250     81.002   -12.724
35.6359     81.358   -19.661
36.1543     81.694   -26.620
36.6802     82.010   -33.563
37.2137     82.307   -40.481
37.7550     82.586   -47.365
38.3041     82.841   -54.342
38.8613     83.074   -61.483
39.4265     83.290   -68.564
40.0000     83.493   -75.584
40.5818     83.683   -82.536
41.1721     83.857   -89.496
41.7710     84.012   -96.608
42.3785     84.157  -103.642
42.9949     84.295  -110.603
43.6203     84.425  -117.492
44.2548     84.544  -124.434
44.8985     84.652  -131.437
45.5515     84.756  -138.370
46.2141     84.857  -145.237
46.8863     84.955  -152.045
47.5683     85.044  -159.024
48.2602     85.130  -165.946
48.9621     85.215  -172.811
49.6743     85.299  -179.619
50.3968     85.380   173.440
51.1299     85.461   166.504
51.8736     85.542   159.610
52.6281     85.616   152.628
53.3936     85.703   145.754
54.1702     85.784   138.753
54.9581     85.866   131.791
55.7575     85.950   124.833
56.5685     86.038   117.680
57.3914     86.126   110.553
58.2261     86.215   103.453
59.0730     86.306    96.228
59.9323     86.399    88.910
60.8040     86.494    81.618
61.6884     86.590    74.294
62.5857     86.690    66.743
63.4960     86.790    59.208
64.4196     86.891    51.690
65.3566     86.991    43.889
66.3073     87.092    36.094
67.2717     87.194    28.318
68.2502     87.294    20.276
69.2429     87.394    12.212
70.2501     87.496     4.156
71.2719     87.593    -4.183
72.3086     87.690   -12.531
73.3603     87.787   -20.904
74.4274     87.878   -29.539
75.5099     87.969   -38.164
76.6083     88.059   -46.896
77.7226     88.145   -55.798
78.8531     88.232   -64.694
80.0000     88.315   -73.812
81.1636     88.397   -82.987
82.3442     88.479   -92.234
83.5419     88.559  -101.692
84.7570     88.638  -111.146
85.9899     88.716  -120.848
87.2406     88.793  -130.596
88.5096     88.869  -140.488
89.7970     88.944  -150.536
91.1031     89.017  -160.649
92.4282     89.088  -171.003
93.7726     89.158   178.638
95.1366     89.222   167.987
96.5204     89.286   157.336
97.9243     89.343   146.438
99.3486     89.400   135.509
100.794     89.447   124.539
102.260     89.492   113.556
103.747     89.539   102.212
105.256     89.585    90.783
106.787     89.631    79.152
108.340     89.677    67.484
109.916     89.724    55.585
111.515     89.771    43.641
113.137     89.820    31.468
114.783     89.870    19.208
116.452     89.922     6.745
118.146     89.973    -5.887
119.865     90.024   -18.647
121.608     90.073   -31.694
123.377     90.118   -44.843
125.171     90.157   -58.259
126.992     90.189   -71.838
128.839     90.216   -85.564
130.713     90.231   -99.566
132.615     90.239  -113.688
134.543     90.239  -128.010
136.500     90.229  -142.575
138.486     90.223  -157.119
140.500     90.205  -171.941
142.544     90.175   172.889
144.617     90.151   157.702
146.721     90.124   142.377
148.855     90.087   126.700
151.020     90.047   110.848
153.217     90.007    94.850
155.445     89.964    78.690
157.706     89.920    62.283
160.000     89.874    45.659
162.327     89.828    28.825
164.688     89.790    11.921
167.084     89.745    -5.281
169.514     89.693   -22.843
171.980     89.638   -40.613
174.481     89.586   -58.495
177.019     89.528   -76.583
179.594     89.456   -94.989
182.206     89.370  -113.711
184.856     89.276  -132.665
187.545     89.177  -151.765
190.273     89.058  -171.218
193.041     88.924   169.092
195.849     88.773   149.181
198.697     88.603   128.987
201.587     88.422   108.631
204.520     88.239    88.122
207.494     88.061    67.440
210.512     87.887    46.493
213.574     87.729    25.321
216.681     87.588     3.975
219.833     87.451   -17.749
223.030     87.313   -39.848
226.274     87.170   -62.203
229.565     87.019   -84.801
232.905     86.857  -107.600
236.292     86.681  -130.622
239.729     86.489  -153.906
243.216     86.281  -177.394
246.754     86.062   158.885
250.343     85.836   134.862
253.984     85.617   110.565
257.678     85.412    85.944
261.426     85.231    60.766
265.229     85.081    35.157
269.087     84.960     9.041
273.001     84.867   -17.594
276.972     84.788   -44.665
281.000     84.708   -72.078
285.088     84.605   -99.638
289.234     84.466  -127.047
293.441     84.273  -154.116
297.709     83.984   179.551
302.040     83.645   153.822
306.433     83.410   127.983
310.890     83.291   107.147
315.412     83.187    83.229
320.000     83.088    59.138
324.655     82.997    34.802
329.377     82.930     9.906
334.168     82.879   -16.066
339.028     82.810   -43.520
343.959     82.664   -72.613
348.962     82.386  -103.332
354.038     81.917  -135.550
359.188     81.228  -168.843
364.412     80.317   157.509
369.713     79.221   124.675
375.090     78.075    93.756
380.546     77.167    65.216
386.081     76.765    37.676
391.697     76.868     8.485
397.394     77.209   -24.222
403.175     77.497   -60.513
409.039     77.615  -100.006
414.989     77.600  -142.200
421.025     77.562   173.519
427.149     77.637   128.012
433.362     77.937    82.254
439.665     78.476    36.641
446.060     79.148    -8.723
452.548     79.785   -54.313
459.131     80.267  -100.721
465.809     80.559  -148.472
472.584     80.704   161.882
479.458     80.821   110.224
486.432     81.028    56.578
493.507     81.402     1.448
500.686     81.891   -54.489
507.968     82.450  -121.655
515.357     82.710  -168.177
522.853     82.953   133.085
530.458     83.143    72.732
538.174     83.364    10.863
546.002     83.642   -51.911
553.943     83.929  -115.111
562.001     84.142  -178.681
570.175     84.244   116.694
578.469     84.276    50.171
586.883     84.329   -18.380
595.419     84.448   -88.108
604.080     84.639  -157.434
612.866     84.864   134.264
621.780     85.053    66.160
630.824     85.140    -2.792
640.000     85.160   -73.119
649.309     85.176  -144.938
658.753     85.216   141.851
668.335     85.275    67.258
678.056     85.359    -8.632
687.919     85.495   -85.628
697.925     85.667  -163.302
708.077     85.740   108.280
718.376     85.631    40.014
728.825     85.342   -41.069
739.426     85.054  -124.806
750.181     84.961   149.765
761.093     85.035    64.476
772.163     85.015   -19.776
783.394     84.695  -104.004
794.789     84.103   170.426
806.349     83.438    83.334
818.078     82.841    -4.307
829.977     82.298   -91.573
842.050     81.810  -178.698
854.298     81.546    93.588
866.724     81.694     5.232
879.330     82.220   -84.011
892.120     82.903  -175.197
905.097     83.613    90.098
918.262     84.459   -14.696
931.618     85.313  -110.840
945.169     86.200   144.785
958.917     86.965    38.197
972.864     87.614   -70.794
987.015     88.187   178.214
1001.37     88.618    65.742
1015.94     88.793   -48.377
1030.71     88.737  -165.008
1045.71     88.628    75.556
1060.92     88.509   -44.878
1076.35     88.128  -167.781
1092.00     87.338    67.113
1107.89     86.241   -51.627
1124.00     84.758  -177.670
1140.35     83.081    52.456
1156.94     81.820   -69.355
1173.77     81.278   176.587
1190.84     81.408    61.912
1208.16     82.086   -52.429
1225.73     83.101  -174.350
1243.56     84.104    55.626
1261.65     84.870   -80.882
1280.00     85.871   126.750
1298.62     87.227   -24.290
1317.51     88.014  -170.580
1336.67     87.825    51.663
1356.11     87.099  -107.869
1375.84     86.487    88.870
1395.85     86.037   -61.501
1416.15     85.317   151.059
1436.75     84.211    -4.905
1457.65     82.940  -168.321
1478.85     81.637    31.701
1500.36     80.782  -117.805
1522.19     80.922    73.410
1544.33     81.442   -74.856
1566.79     81.839   123.420
1589.58     82.414   -52.908
1612.70     82.929   132.022
1636.16     82.368   -42.731
1659.95     81.477   137.284
1684.10     81.296   -50.241
1708.60     81.151   126.388
1733.45     81.051   -46.254
1758.66     81.903   134.339
1784.24     83.782   -63.862
1810.19     85.414    97.614
1836.52     86.200  -104.483
1863.24     86.498    49.032
1890.34     86.756  -159.337
1917.83     86.952   -22.609
1945.73     86.702   125.881
1974.03     86.149   -84.188
2002.74     85.521    52.413
2031.87     84.989  -170.264
2061.43     84.388   -32.413
2091.41     83.618    93.919
2121.83     82.671  -148.616
2152.69     81.879   -16.643
2184.01     81.177   117.107
2215.77     79.840  -109.720
2248.00     78.323     8.190
2280.70     76.708   112.694
2313.87     74.265  -147.051
2347.53     70.956   -22.985
2381.68     70.258   134.742
2416.32     73.614   -84.777
2451.46     78.286    12.927
2487.12     81.921    90.635
2523.30     83.969   163.293
2560.00     85.002  -114.893
2597.24     85.705   -34.840
2635.01     86.311    41.381
2673.34     86.756    96.915
2712.23     86.794   149.151
2751.68     86.653  -157.593
2791.70     86.342   -91.945
2832.31     86.189   -33.183
2873.50     86.141    14.593
2915.30     86.119    45.057
2957.70     85.933    76.483
3000.72     85.222   117.792
3044.37     84.367   141.647
3088.65     83.556   167.466
3133.58     82.275   178.695
3179.16     80.211  -166.424
3225.40     78.287  -141.052
3272.31     77.908  -125.210
3319.91     78.165  -125.721
3368.20     78.082  -128.312
3417.19     77.746  -122.613
3466.89     76.944  -117.538
3517.32     76.727  -139.907
3568.48     77.835  -165.567
3620.39     78.713   176.929
3673.05     79.253   140.465
3726.47     79.458    86.157
3780.67     79.495    38.594
3835.67     79.400    -0.321
3891.46     79.255   -54.154
3948.06     79.263  -128.418
4005.49     79.270   160.565
4063.75     79.605    81.430
4122.86     80.190    -2.974
4182.82     80.464   -94.303
4243.66     80.608   169.099
4305.39     81.130    64.511
4368.01     81.350   -47.558
4431.55     81.232  -152.587
4496.01     81.044    86.307
4561.40     80.988   -52.928
4627.75     81.054   174.189
4695.06     81.222    28.675
4763.35     81.917  -127.844
4832.64     82.774    82.860
4902.93     83.539   -88.219
4974.24     83.844    79.935
5046.60     83.664  -104.811
5120.00     83.344    59.561
5194.47     83.127  -132.963
5270.03     83.351    38.327
5346.68     84.276   171.108
5424.45     85.207   -54.306
5503.35     85.550    68.034
5583.40     85.260   169.158
5664.61     84.883   -68.874
5747.01     84.678    28.095
5830.60     84.511   123.052
5915.41     84.539  -153.449
6001.45     84.550   -90.088
6088.74     84.401   -22.888
6177.30     84.362    24.985
6267.15     84.336    79.126
6358.31     84.136    99.830
6450.80     84.062   130.629
6544.62     84.320   145.515
6639.82     84.600   147.637
6736.40     84.531   139.471
6834.38     84.424   119.106
6933.79     84.521   102.682
7034.64     84.386    58.379
7136.96     84.356    10.430
7240.77     84.690   -56.711
7346.09     84.629  -133.351
7452.94     83.880   137.816
7561.35     82.905    41.490
7671.33     81.768   -61.451
7782.91     80.915  -177.269
7896.12     80.827    64.569
8010.97     80.842   -88.354
8127.49     80.882   122.297
8245.71     81.348   -42.064
8365.65     81.642   136.178
8487.33     81.586   -67.184
8610.78     81.533    84.144
8736.03     81.601  -123.412
8863.09     82.066    -1.533
8992.01     83.032   108.028
9122.80     83.844  -155.164
9255.50     83.838   -90.026
9390.12     82.850   -30.600
9526.70     80.951    24.909
9665.27     79.276    74.641
9805.86     79.009   113.823
9948.49     80.552   130.587
10093.2     83.178   122.252
10240.0     85.540    88.874
10388.9     87.013    42.763
10540.1     86.946   -32.956
10693.4     85.014  -127.878
10848.9     81.825   133.011
11006.7     78.725    33.155
11166.8     77.824   -83.349
11329.2     78.541   139.750
11494.0     78.720   -17.433
11661.2     78.268   161.400
11830.8     77.546   -38.963
12002.9     76.006   106.569
12177.5     73.620  -123.474
12354.6     70.184    -7.394
12534.3     68.097   113.640
12716.6     71.990  -153.244
12901.6     75.652  -114.283
13089.2     74.685   -90.428
13279.6     74.642   -71.295
13472.8     76.482   -75.862
13668.8     79.544  -110.067
13867.6     82.841  -174.392
14069.3     83.474    74.589
14273.9     80.254   -52.356
14481.5     75.994  -164.325
14692.2     74.681    65.511
14905.9     75.455   -97.436
15122.7     75.536    68.153
15342.7     74.744  -145.382
15565.8     74.655   -16.307
15792.2     75.719    72.086
16021.9     75.488   124.808
16255.0     72.364   155.218
16491.4     66.436  -176.126
16731.3     62.966  -146.322
16974.7     65.588  -149.828
17221.6     69.204   162.678
17472.1     71.148    71.675
17726.2     72.186   -56.098
17984.0     72.473   151.026
18245.6     71.277   -27.039
18511.0     68.221   128.274
18780.2     65.447   -97.740
19053.4     63.816    15.366
19330.5     60.703    84.268
19611.7     52.962   135.439
19897.0     43.417  -148.938
20186.4     38.788  -115.515
20480.0     38.374  -158.997
20777.9     38.371   123.302
21080.1     38.366    17.534
21386.7     38.379  -125.658
21697.8     38.363    92.423
22013.4     37.619  -164.430
22333.6     36.874   -61.286
22658.4     36.129    41.877
22988.0     35.384   145.015
23322.4     34.639  -111.848
23661.6     33.894    -8.691
24005.8     33.149    94.445
24355.0     32.404  -162.416
24709.2     31.660   -59.254
25068.6     30.915    43.893
25433.2     30.170   147.048
25803.2     29.425  -109.823
26178.5     28.680    -6.672
26559.3     27.935    96.468
26945.6     27.190  -160.381
27337.5     26.445   -57.227
27735.2     25.701    45.903
28138.6     24.956   149.055
28547.9     24.211  -107.803
28963.1     23.466    -4.647
29384.4     22.721    98.495
29811.8     21.976  -158.357
30245.4     21.231   -55.205
30685.3     20.486    47.949
31131.7     19.742   151.078
31584.5     18.997  -105.770
32043.9     18.252    -2.621
32510.0     17.507   100.522
32982.8     16.762  -156.316
33462.6     16.017   -53.180
33949.3     15.272    49.971
34443.1     14.527   153.119
34944.1     13.782  -103.737
35452.4     13.038    -0.597
35968.0     12.293   102.564
36491.2     11.548  -154.297
37022.0     10.803   -51.154
37560.5     10.058    51.992
38106.8      9.313   155.144
38661.1      8.568  -101.714
39223.4      7.823     1.441
39793.9      7.079   104.590
