Freq[Hz]     dBSPL  Phase[Deg]
5.00000     16.146  -161.327
5.07273     16.621  -161.620
5.14651     17.096  -161.917
5.22137     17.571  -162.219
5.29732     18.046  -162.525
5.37437     18.521  -162.835
5.45254     18.996  -163.150
5.53185     19.471  -163.469
5.61231     19.946  -163.793
5.69394     20.421  -164.122
5.77676     20.896  -164.455
5.86079     21.371  -164.794
5.94604     21.846  -165.137
6.03252     22.321  -165.485
6.12027     22.795  -165.839
6.20929     23.270  -166.197
6.29961     23.745  -166.561
6.39124     24.220  -166.930
6.48420     24.695  -167.304
6.57851     25.170  -167.684
6.67420     25.645  -168.069
6.77128     26.120  -168.460
6.86977     26.595  -168.857
6.96969     27.070  -169.259
7.07107     27.545  -169.668
7.17392     28.020  -170.082
7.27827     28.495  -170.502
7.38413     28.970  -170.928
7.49154     29.445  -171.361
7.60050     29.920  -171.800
7.71105     30.395  -172.245
7.82321     30.870  -172.696
7.93701     31.344  -173.155
8.05245     31.819  -173.620
8.16958     32.294  -174.091
8.28841     32.769  -174.570
8.40896     33.244  -175.055
8.53128     33.719  -175.548
8.65537     34.194  -176.047
8.78126     34.669  -176.554
8.90899     35.144  -177.069
9.03857     35.619  -177.591
9.17004     36.094  -178.120
9.30342     36.569  -178.657
9.43874     37.044  -179.202
9.57603     37.519  -179.755
9.71532     37.994   179.684
9.85663     38.469   179.115
10.0000     38.944   178.538
10.1455     39.419   177.952
10.2930     39.893   177.358
10.4427     40.368   176.755
10.5946     40.843   176.143
10.7487     41.318   175.523
10.9051     41.793   174.893
11.0637     42.268   174.254
11.2246     42.743   173.606
11.3879     43.218   172.949
11.5535     43.693   172.282
11.7216     44.168   171.605
11.8921     44.643   170.918
12.0650     45.118   170.222
12.2405     45.593   169.515
12.4186     46.068   168.798
12.5992     46.543   168.071
12.7825     47.018   167.333
12.9684     47.493   166.584
13.1570     47.968   165.825
13.3484     48.442   165.054
13.5426     48.917   164.272
13.7395     49.392   163.479
13.9394     49.867   162.674
14.1421     50.342   161.858
14.3478     50.817   161.029
14.5565     51.292   160.189
14.7683     51.767   159.336
14.9831     52.242   158.471
15.2010     52.717   157.594
15.4221     53.192   156.703
15.6464     53.667   155.800
15.8740     54.142   154.883
16.1049     54.617   153.954
16.3392     55.092   153.010
16.5768     55.567   152.053
16.8179     56.042   151.082
17.0626     56.517   150.097
17.3107     56.991   149.098
17.5625     57.466   148.084
17.8180     57.941   147.055
18.0771     58.416   146.011
18.3401     58.891   144.953
18.6068     59.192   143.936
18.8775     59.506   143.005
19.1521     59.836   142.147
19.4306     60.186   141.362
19.7133     60.574   140.643
20.0000     61.001   139.906
20.2909     61.463   139.094
20.5860     61.960   138.152
20.8855     62.465   137.150
21.1893     62.996   135.894
21.4975     63.539   134.414
21.8102     64.086   132.733
22.1274     64.634   130.873
22.4492     65.180   128.859
22.7758     65.722   126.713
23.1071     66.262   124.451
23.4432     66.800   122.077
23.7841     67.403   119.263
24.1301     68.005   116.347
24.4811     68.603   113.333
24.8372     69.199   110.221
25.1984     69.793   107.015
25.5649     70.383   103.717
25.9368     70.970   100.326
26.3141     71.553    96.843
26.6968     72.159    92.833
27.0851     72.765    88.657
27.4791     73.366    84.384
27.8788     73.961    80.011
28.2843     74.550    75.544
28.6957     75.131    70.981
29.1131     75.705    66.324
29.5365     76.274    61.312
29.9661     76.836    56.005
30.4020     77.388    50.606
30.8442     77.926    45.107
31.2929     78.450    39.526
31.7480     78.961    33.865
32.2098     79.456    28.133
32.6783     79.930    21.926
33.1536     80.386    15.645
33.6359     80.824     9.318
34.1251     81.242     2.946
34.6215     81.641    -3.456
35.1250     82.020    -9.878
35.6359     82.369   -16.651
36.1543     82.697   -23.443
36.6802     83.005   -30.220
37.2137     83.294   -36.971
37.7550     83.565   -43.688
38.3041     83.813   -50.484
38.8613     84.038   -57.422
39.4265     84.247   -64.300
40.0000     84.443   -71.118
40.5818     84.625   -77.868
41.1721     84.793   -84.619
41.7710     84.942   -91.503
42.3785     85.081   -98.311
42.9949     85.213  -105.044
43.6203     85.337  -111.707
44.2548     85.451  -118.416
44.8985     85.555  -125.182
45.5515     85.655  -131.877
46.2141     85.752  -138.506
46.8863     85.846  -145.076
47.5683     85.932  -151.823
48.2602     86.017  -158.513
48.9621     86.099  -165.145
49.6743     86.181  -171.720
50.3968     86.261  -178.445
51.1299     86.340   174.833
51.8736     86.420   168.152
52.6281     86.493   161.384
53.3936     86.579   154.701
54.1702     86.659   147.887
54.9581     86.740   141.112
55.7575     86.823   134.338
56.5685     86.907   127.345
57.3914     86.993   120.378
58.2261     87.078   113.439
59.0730     87.165   106.365
59.9323     87.252    99.191
60.8040     87.341    92.042
61.6884     87.432    84.860
62.5857     87.523    77.447
63.4960     87.615    70.051
64.4196     87.708    62.671
65.3566     87.799    55.016
66.3073     87.890    47.367
67.2717     87.983    39.736
68.2502     88.073    31.855
69.2429     88.165    23.952
70.2501     88.257    16.058
71.2719     88.346     7.899
72.3086     88.435    -0.268
73.3603     88.525    -8.458
74.4274     88.610   -16.892
75.5099     88.697   -25.317
76.6083     88.782   -33.841
77.7226     88.865   -42.523
78.8531     88.949   -51.200
80.0000     89.031   -60.084
81.1636     89.112   -69.020
82.3442     89.193   -78.022
83.5419     89.273   -87.217
84.7570     89.353   -96.409
85.9899     89.431  -105.823
87.2406     89.508  -115.279
88.5096     89.585  -124.861
89.7970     89.660  -134.579
91.1031     89.735  -144.355
92.4282     89.808  -154.342
93.7726     89.881  -164.333
95.1366     89.950  -174.587
96.5204     90.019   175.159
97.9243     90.084   164.670
99.3486     90.150   154.150
100.794     90.208   143.565
102.260     90.264   132.962
103.747     90.322   121.992
105.256     90.380   110.938
106.787     90.435    99.653
108.340     90.489    88.329
109.916     90.541    76.748
111.515     90.592    65.120
113.137     90.640    53.252
114.783     90.687    41.299
116.452     90.733    29.147
118.146     90.776    16.841
119.865     90.818     4.417
121.608     90.858    -8.267
123.377     90.896   -21.042
125.171     90.930   -34.060
126.992     90.961   -47.233
128.839     90.990   -60.544
130.713     91.012   -74.130
132.615     91.030   -87.838
134.543     91.043  -101.750
136.500     91.046  -115.909
138.486     91.054  -130.048
140.500     91.049  -144.461
142.544     91.030  -159.203
144.617     91.016  -173.940
146.721     90.997   171.205
148.855     90.966   156.042
151.020     90.932   140.734
153.217     90.897   125.306
155.445     90.861   109.739
157.706     90.822    93.946
160.000     90.782    77.945
162.327     90.741    61.739
164.688     90.707    45.465
167.084     90.666    28.892
169.514     90.617    11.960
171.980     90.565    -5.185
174.481     90.516   -22.445
177.019     90.463   -39.918
179.594     90.397   -57.713
182.206     90.317   -75.819
184.856     90.229   -94.141
187.545     90.138  -112.576
190.273     90.027  -131.301
193.041     89.906  -150.183
195.849     89.778  -169.200
198.697     89.640   171.580
201.587     89.506   152.257
204.520     89.382   132.804
207.494     89.272   113.170
210.512     89.171    93.240
213.574     89.081    73.053
216.681     89.001    52.669
219.833     88.916    31.913
223.030     88.825    10.810
226.274     88.730   -10.523
229.565     88.635   -32.083
232.905     88.543   -53.854
236.292     88.457   -75.879
239.729     88.375   -98.220
243.216     88.301  -120.838
246.754     88.237  -143.781
250.343     88.177  -167.094
253.984     88.127   169.296
257.678     88.089   145.391
261.426     88.070   121.015
265.229     88.072    96.275
269.087     88.086    71.048
273.001     88.097    45.285
276.972     88.084    19.065
281.000     88.041    -7.516
285.088     87.974   -34.339
289.234     87.901   -61.253
293.441     87.836   -88.299
297.709     87.773  -115.552
302.040     87.706  -143.758
306.433     87.647  -173.873
310.890     87.600   161.520
315.412     87.526   133.005
320.000     87.419   104.139
324.655     87.272    74.954
329.377     87.087    45.464
334.168     86.868    15.558
339.028     86.627   -14.547
343.959     86.399   -44.770
348.962     86.225   -75.145
354.038     86.161  -105.911
359.188     86.224  -137.568
364.412     86.383  -170.487
369.713     86.580   155.303
375.090     86.740   119.819
380.546     86.803    83.315
386.081     86.755    46.335
391.697     86.627     9.083
397.394     86.467   -28.462
403.175     86.319   -66.390
409.039     86.196  -105.243
414.989     86.101  -145.272
421.025     86.034   173.475
427.149     85.996   130.992
433.362     85.981    87.412
439.665     85.984    42.800
446.060     86.013    -2.428
452.548     86.069   -48.153
459.131     86.143   -94.452
465.809     86.226  -141.361
472.584     86.316   171.098
479.458     86.411   122.895
486.432     86.496    73.733
493.507     86.548    23.444
500.686     86.556   -28.011
507.968     86.517   -90.823
515.357     86.468  -134.904
522.853     86.436   169.333
530.458     86.456   112.267
538.174     86.548    54.258
546.002     86.693    -4.368
553.943     86.849   -63.649
562.001     86.971  -123.831
570.175     87.060   174.689
578.469     87.170   111.664
586.883     87.369    47.324
595.419     87.662   -17.705
604.080     88.013   -82.433
612.866     88.373  -146.515
621.780     88.676   149.418
630.824     88.841    84.504
640.000     88.871    18.110
649.309     88.827   -50.233
658.753     88.791  -120.675
668.335     88.826   166.971
678.056     88.947    93.239
687.919     89.131    18.463
697.925     89.346   -57.252
708.077     89.566  -143.993
718.376     89.701   149.176
728.825     89.785    70.764
739.426     89.799    -8.873
750.181     89.760   -89.774
761.093     89.681  -171.840
772.163     89.552   105.166
783.394     89.360    21.207
794.789     89.105   -63.683
806.349     88.782  -149.243
818.078     88.361   124.628
829.977     87.809    37.720
842.050     87.174   -50.505
854.298     86.629  -140.235
866.724     86.348   129.462
879.330     86.337    39.582
892.120     86.439   -49.839
905.097     86.563  -140.171
918.262     86.802   121.616
931.618     87.193    31.786
945.169     87.704   -65.697
958.917     88.173  -165.332
972.864     88.539    92.183
987.015     88.891   -13.430
1001.37     89.317  -121.453
1015.94     89.759   129.235
1030.71     90.106    18.801
1045.71     90.310   -92.954
1060.92     90.356   153.611
1076.35     90.228    36.179
1092.00     90.027   -84.547
1107.89     89.909   160.417
1124.00     89.833    39.066
1140.35     89.688   -85.773
1156.94     89.521   154.016
1173.77     89.467    33.682
1190.84     89.536   -96.229
1208.16     89.607   134.536
1225.73     89.651     4.985
1243.56     89.713  -125.016
1261.65     89.698   104.529
1280.00     89.598   -37.905
1298.62     89.713   178.032
1317.51     89.997    35.391
1336.67     89.955   -97.445
1356.11     89.474   110.790
1375.84     88.952   -44.873
1395.85     88.571   169.660
1416.15     88.076    24.729
1436.75     87.481  -130.712
1457.65     86.958    64.622
1478.85     86.282   -97.510
1500.36     85.394   111.283
1522.19     84.354   -58.859
1544.33     83.333   152.316
1566.79     82.121    -6.755
1589.58     81.311  -176.346
1612.70     81.012    17.853
1636.16     80.328  -145.500
1659.95     79.325    46.351
1684.10     78.754  -136.971
1708.60     78.827    35.569
1733.45     78.765  -137.164
1758.66     77.964    47.601
1784.24     77.239  -147.147
1810.19     76.910    22.706
1836.52     75.700  -160.923
1863.24     73.548    16.002
1890.34     71.734  -163.461
1917.83     71.215    13.428
1945.73     71.954  -163.149
1974.03     73.690     4.915
2002.74     76.212   146.749
2031.87     78.647   -75.957
2061.43     80.587    60.572
2091.41     81.801  -172.906
2121.83     82.254   -55.470
2152.69     81.957    77.779
2184.01     80.501  -152.676
2215.77     78.933   -28.339
2248.00     77.564    94.113
2280.70     75.629  -139.947
2313.87     74.654   -13.238
2347.53     75.746   112.948
2381.68     77.846  -121.665
2416.32     79.816    -9.457
2451.46     81.446    86.746
2487.12     82.823   169.419
2523.30     83.738  -114.976
2560.00     83.815   -27.911
2597.24     83.147    58.289
2635.01     82.290   141.098
2673.34     81.503  -153.272
2712.23     81.100   -86.791
2751.68     80.717   -19.646
2791.70     79.945    53.872
2832.31     78.806   117.208
2873.50     77.433   174.155
2915.30     75.615  -130.599
2957.70     74.439   -67.449
3000.72     74.774    -5.903
3044.37     76.311    27.223
3088.65     78.048    58.871
3133.58     78.750    75.572
3179.16     78.798    93.127
3225.40     78.343   117.056
3272.31     77.831   124.205
3319.91     77.904   115.384
3368.20     77.923   113.848
3417.19     77.346   119.085
3466.89     76.166   113.958
3517.32     75.198    84.117
3568.48     73.851    60.573
3620.39     72.089    44.456
3673.05     71.759    10.568
3726.47     72.850   -33.973
3780.67     73.858   -72.205
3835.67     74.351  -113.779
3891.46     74.678  -175.866
3948.06     75.069   103.098
4005.49     75.450    31.192
4063.75     76.281   -43.292
4122.86     77.408  -124.830
4182.82     78.207   142.417
4243.66     78.640    43.598
4305.39     78.376   -59.411
4368.01     77.331  -168.839
4431.55     76.243    87.659
4496.01     75.554   -34.281
4561.40     74.012  -176.859
4627.75     70.910    46.251
4695.06     64.157   -98.510
4763.35     56.474    58.939
4832.64     58.639  -162.727
4902.93     68.502    -7.523
4974.24     74.702   153.975
5046.60     76.683   -29.200
5120.00     77.599   141.647
5194.47     78.388   -40.560
5270.03     79.577   138.073
5346.68     81.314   -84.116
5424.45     82.637    57.606
5503.35     82.749  -173.385
5583.40     82.340   -65.122
5664.61     82.055    64.533
5747.01     81.449   166.658
5830.60     80.369   -94.413
5915.41     78.700    -0.968
6001.45     77.192    77.027
6088.74     76.711   160.833
6177.30     76.749  -135.801
6267.15     76.602   -72.235
6358.31     76.060   -44.381
6450.80     75.865    -6.546
6544.62     76.328    14.256
6639.82     76.515    17.818
6736.40     75.709     8.806
6834.38     75.027    -8.583
6933.79     76.585   -17.887
7034.64     79.246   -60.604
7136.96     80.350  -114.416
7240.77     80.218   179.663
7346.09     80.045   114.667
7452.94     79.935    35.398
7561.35     79.039   -53.641
7671.33     77.153  -146.398
7782.91     75.113   112.902
7896.12     74.721    14.340
8010.97     75.191  -121.011
8127.49     74.986   102.617
8245.71     74.353   -51.210
8365.65     72.080   142.492
8487.33     69.216   -27.789
8610.78     69.422   164.544
8736.03     71.436   -20.739
8863.09     72.515   107.620
8992.01     73.203  -143.514
9122.80     73.218   -66.852
9255.50     72.108   -34.072
9390.12     71.780     9.392
9526.70     73.202    64.223
9665.27     74.845   112.295
9805.86     75.922   144.518
9948.49     76.395   157.355
10093.2     75.679   162.988
10240.0     75.477   161.423
10388.9     75.689   150.419
10540.1     74.779   114.090
10693.4     74.859    62.035
10848.9     76.152   -15.717
11006.7     76.106  -127.314
11166.8     74.523    91.843
11329.2     72.805   -62.721
11494.0     71.814   127.432
11661.2     70.861   -60.226
11830.8     69.621   106.969
12002.9     68.121   -83.605
12177.5     68.071    76.393
12354.6     69.860  -154.129
12534.3     69.838   -60.902
12716.6     67.279    16.243
12901.6     64.737    97.034
13089.2     64.221   154.731
13279.6     63.923   171.223
13472.8     58.417   132.495
13668.8     52.840     3.776
13867.6     56.310  -126.274
14069.3     61.940   133.442
14273.9     60.930    34.335
14481.5     58.675   -44.801
14692.2     60.068  -144.296
14905.9     62.906    82.338
15122.7     65.285   -83.800
15342.7     66.594    81.084
15565.8     65.674  -142.029
15792.2     62.116   -28.040
16021.9     57.513    84.690
16255.0     55.489  -165.158
16491.4     58.204   -91.548
16731.3     59.926   -99.792
16974.7     55.574  -179.593
17221.6     52.795    58.927
17472.1     53.259   -82.235
17726.2     49.470    78.646
17984.0     50.836  -177.909
18245.6     57.157   -30.272
18511.0     59.248   143.161
18780.2     59.572   -77.441
19053.4     56.606    36.981
19330.5     49.525    87.448
19611.7     46.693    73.057
19897.0     49.700    60.012
20186.4     51.062    47.132
20480.0     51.020     1.715
20777.9     51.017   -75.986
21080.1     51.012   178.248
21386.7     51.025    35.055
21697.8     51.000  -106.836
22013.4     50.511   -10.489
22333.6     50.021    85.856
22658.4     49.532  -177.784
22988.0     49.042   -81.444
23322.4     48.553    14.892
23661.6     48.063   111.249
24005.8     47.574  -152.414
24355.0     47.084   -56.075
24709.2     46.595    40.285
25068.6     46.106   136.632
25433.2     45.616  -127.012
25803.2     45.127   -30.683
26178.5     44.637    65.668
26559.3     44.148   162.007
26945.6     43.658  -101.642
27337.5     43.169    -5.287
27735.2     42.679    91.043
28138.6     42.190  -172.606
28547.9     41.700   -76.263
28963.1     41.211    20.093
29384.4     40.722   116.434
29811.8     40.232  -147.218
30245.4     39.743   -50.867
30685.3     39.253    45.486
31131.7     38.764   141.817
31584.5     38.274  -121.832
32043.9     37.785   -25.483
32510.0     37.295    70.861
32982.8     36.806   167.221
33462.6     36.317   -96.443
33949.3     35.827    -0.091
34443.1     35.338    96.255
34944.1     34.848  -167.400
35452.4     34.359   -71.059
35968.0     33.869    25.300
36491.2     33.380   121.640
37022.0     32.890  -142.017
37560.5     32.401   -45.671
38106.8     31.911    50.681
38661.1     31.422   147.024
39223.4     30.933  -116.624
39793.9     30.443   -20.274
