Freq[Hz]     dBSPL  Phase[Deg]
5.00000      1.350   -21.179
5.07273      1.931   -21.708
5.14651      2.512   -22.244
5.22137      3.094   -22.789
5.29732      3.675   -23.341
5.37437      4.256   -23.901
5.45254      4.838   -24.470
5.53185      5.419   -25.047
5.61231      6.000   -25.632
5.69394      6.582   -26.226
5.77676      7.163   -26.828
5.86079      7.744   -27.439
5.94604      8.326   -28.059
6.03252      8.907   -28.688
6.12027      9.488   -29.326
6.20929     10.070   -29.974
6.29961     10.651   -30.630
6.39124     11.233   -31.297
6.48420     11.814   -31.973
6.57851     12.395   -32.659
6.67420     12.977   -33.355
6.77128     13.558   -34.061
6.86977     14.139   -34.777
6.96969     14.721   -35.504
7.07107     15.302   -36.241
7.17392     15.883   -36.989
7.27827     16.465   -37.748
7.38413     17.046   -38.518
7.49154     17.627   -39.299
7.60050     18.209   -40.092
7.71105     18.790   -40.896
7.82321     19.371   -41.711
7.93701     19.953   -42.539
8.05245     20.534   -43.379
8.16958     21.115   -44.230
8.28841     21.697   -45.095
8.40896     22.278   -45.972
8.53128     22.859   -46.861
8.65537     23.441   -47.764
8.78126     24.022   -48.679
8.90899     24.603   -49.608
9.03857     25.185   -50.551
9.17004     25.766   -51.507
9.30342     26.347   -52.477
9.43874     26.929   -53.461
9.57603     27.510   -54.459
9.71532     28.091   -55.472
9.85663     28.673   -56.500
10.0000     29.254   -57.543
10.1455     29.835   -58.601
10.2930     30.417   -59.674
10.4427     30.998   -60.763
10.5946     31.579   -61.868
10.7487     32.161   -62.988
10.9051     32.742   -64.125
11.0637     33.323   -65.279
11.2246     33.905   -66.449
11.3879     34.486   -67.637
11.5535     35.067   -68.841
11.7216     35.649   -70.064
11.8921     36.230   -71.304
12.0650     36.811   -72.562
12.2405     37.393   -73.838
12.4186     37.974   -75.133
12.5992     38.555   -76.447
12.7825     39.137   -77.779
12.9684     39.718   -79.132
13.1570     40.300   -80.503
13.3484     40.881   -81.895
13.5426     41.462   -83.307
13.7395     42.044   -84.740
13.9394     42.625   -86.193
14.1421     43.206   -87.668
14.3478     43.788   -89.164
14.5565     44.369   -90.682
14.7683     44.950   -92.222
14.9831     45.532   -93.784
15.2010     46.113   -95.369
15.4221     46.694   -96.977
15.6464     47.276   -98.609
15.8740     47.857  -100.264
16.1049     48.438  -101.943
16.3392     49.020  -103.647
16.5768     49.601  -105.375
16.8179     50.182  -107.129
17.0626     50.764  -108.908
17.3107     51.345  -110.713
17.5625     51.926  -112.544
17.8180     52.508  -114.402
18.0771     53.089  -116.287
18.3401     53.670  -118.199
18.6068     54.078  -120.081
18.8775     54.498  -121.891
19.1521     54.934  -123.640
19.4306     55.391  -125.330
19.7133     55.885  -126.966
20.0000     56.418  -128.634
20.2909     56.987  -130.390
20.5860     57.591  -132.289
20.8855     58.209  -134.151
21.1893     58.855  -136.266
21.4975     59.512  -138.605
21.8102     60.174  -141.145
22.1274     60.836  -143.863
22.4492     61.496  -146.737
22.7758     62.153  -149.742
23.1071     62.807  -152.863
23.4432     63.460  -156.101
23.7841     64.155  -160.087
24.1301     64.848  -164.173
24.4811     65.540  -168.359
24.8372     66.228  -172.640
25.1984     66.914  -177.018
25.5649     67.596   178.512
25.9368     68.275   173.951
26.3141     68.951   169.297
26.6968     69.629   164.050
27.0851     70.304   158.629
27.4791     70.974   153.109
27.8788     71.638   147.491
28.2843     72.295   141.777
28.6957     72.945   135.968
29.1131     73.588   130.066
29.5365     74.217   123.818
29.9661     74.834   117.284
30.4020     75.440   110.659
30.8442     76.032   103.933
31.2929     76.611    97.126
31.7480     77.176    90.238
32.2098     77.725    83.280
32.6783     78.245    75.899
33.1536     78.747    68.446
33.6359     79.232    60.947
34.1251     79.696    53.402
34.6215     80.141    45.829
35.1250     80.566    38.234
35.6359     80.956    30.343
36.1543     81.325    22.437
36.6802     81.675    14.547
37.2137     82.005     6.681
37.7550     82.317    -1.150
38.3041     82.605    -9.039
38.8613     82.866   -17.038
39.4265     83.112   -24.977
40.0000     83.345   -32.855
40.5818     83.564   -40.666
41.1721     83.767   -48.465
41.7710     83.947   -56.363
42.3785     84.118   -64.184
42.9949     84.281   -71.932
43.6203     84.437   -79.608
44.2548     84.579   -87.309
44.8985     84.708   -95.042
45.5515     84.832  -102.707
46.2141     84.953  -110.303
46.8863     85.072  -117.840
47.5683     85.174  -125.503
48.2602     85.274  -133.108
48.9621     85.372  -140.655
49.6743     85.470  -148.147
50.3968     85.558  -155.733
51.1299     85.644  -163.305
51.8736     85.730  -170.836
52.6281     85.809  -178.454
53.3936     85.895   174.082
54.1702     85.973   166.497
54.9581     86.052   158.952
55.7575     86.132   151.418
56.5685     86.210   143.742
57.3914     86.288   136.092
58.2261     86.366   128.470
59.0730     86.444   120.759
59.9323     86.523   112.984
60.8040     86.603   105.235
61.6884     86.685    97.465
62.5857     86.769    89.518
63.4960     86.853    81.587
64.4196     86.939    73.673
65.3566     87.025    65.522
66.3073     87.113    57.378
67.2717     87.201    49.254
68.2502     87.291    40.892
69.2429     87.382    32.509
70.2501     87.475    24.135
71.2719     87.566    15.490
72.3086     87.658     6.837
73.3603     87.750    -1.842
74.4274     87.840   -10.783
75.5099     87.931   -19.715
76.6083     88.020   -28.756
77.7226     88.107   -37.971
78.8531     88.196   -47.179
80.0000     88.281   -56.615
81.1636     88.366   -66.109
82.3442     88.451   -75.675
83.5419     88.533   -85.453
84.7570     88.616   -95.226
85.9899     88.697  -105.242
87.2406     88.778  -115.303
88.5096     88.857  -125.503
89.7970     88.934  -135.852
91.1031     89.012  -146.263
92.4282     89.087  -156.900
93.7726     89.161  -167.542
95.1366     89.233  -178.478
96.5204     89.304   170.586
97.9243     89.366   159.393
99.3486     89.427   148.165
100.794     89.477   136.932
102.260     89.525   125.694
103.747     89.575   114.087
105.256     89.626   102.394
106.787     89.676    90.494
108.340     89.725    78.556
109.916     89.774    66.375
111.515     89.823    54.150
113.137     89.870    41.697
114.783     89.917    29.162
116.452     89.964    16.434
118.146     90.009     3.547
119.865     90.055    -9.460
121.608     90.099   -22.742
123.377     90.140   -36.122
125.171     90.176   -49.764
126.992     90.208   -63.571
128.839     90.235   -77.525
130.713     90.251   -91.768
132.615     90.261  -106.137
134.543     90.263  -120.715
136.500     90.255  -135.547
138.486     90.249  -150.361
140.500     90.231  -165.455
142.544     90.199   179.109
144.617     90.172   163.662
146.721     90.141   148.087
148.855     90.100   132.176
151.020     90.057   116.100
153.217     90.013    99.887
155.445     89.969    83.518
157.706     89.924    66.904
160.000     89.879    50.068
162.327     89.833    33.018
164.688     89.796    15.888
167.084     89.752    -1.549
169.514     89.701   -19.358
171.980     89.645   -37.388
174.481     89.591   -55.538
177.019     89.529   -73.905
179.594     89.453   -92.596
182.206     89.360  -111.606
184.856     89.256  -130.847
187.545     89.146  -150.227
190.273     89.014  -169.944
193.041     88.865   170.123
195.849     88.701   149.992
198.697     88.518   129.598
201.587     88.328   109.057
204.520     88.138    88.366
207.494     87.954    67.498
210.512     87.777    46.354
213.574     87.613    24.974
216.681     87.466     3.411
219.833     87.322   -18.528
223.030     87.176   -40.834
226.274     87.027   -63.387
229.565     86.874   -86.176
232.905     86.716  -109.173
236.292     86.549  -132.414
239.729     86.372  -155.961
243.216     86.181  -179.774
246.754     85.975   156.112
250.343     85.753   131.656
253.984     85.526   106.927
257.678     85.306    81.905
261.426     85.107    56.377
265.229     84.943    30.438
269.087     84.811     3.975
273.001     84.709   -23.050
276.972     84.620   -50.546
281.000     84.529   -78.396
285.088     84.419  -106.395
289.234     84.280  -134.260
293.441     84.089  -161.829
297.709     83.799   171.289
302.040     83.446   145.001
306.433     83.188   118.668
310.890     83.050    97.465
315.412     82.921    73.123
320.000     82.786    48.590
324.655     82.643    23.815
329.377     82.502    -1.501
334.168     82.358   -27.884
339.028     82.169   -55.783
343.959     81.864   -85.397
348.962     81.370  -116.706
354.038     80.603  -149.494
359.188     79.526   176.855
364.412     78.147   143.348
369.713     76.553   111.578
375.090     75.006    82.907
380.546     73.970    57.173
386.081     73.710    31.439
391.697     74.011     2.197
397.394     74.385   -31.782
403.175     74.498   -69.377
409.039     74.308  -109.619
414.989     73.927  -151.976
421.025     73.524   164.198
427.149     73.314   119.959
433.362     73.498    76.389
439.665     74.143    33.589
446.060     75.108    -9.064
452.548     76.119   -52.643
459.131     76.958   -97.872
465.809     77.554  -145.115
472.584     77.966   165.144
479.458     78.341   112.861
486.432     78.812    58.250
493.507     79.450     2.122
500.686     80.178   -54.732
507.968     80.917  -122.962
515.357     81.234  -170.208
522.853     81.512   130.164
530.458     81.740    69.047
538.174     82.044     6.767
546.002     82.450   -55.999
553.943     82.862  -118.938
562.001     83.138   177.669
570.175     83.227   112.784
578.469     83.220    45.341
586.883     83.294   -24.701
595.419     83.541   -95.944
604.080     83.926  -166.132
612.866     84.330   125.533
621.780     84.629    57.899
630.824     84.739   -10.484
640.000     84.706   -80.422
649.309     84.622  -152.207
658.753     84.546   134.189
668.335     84.509    58.808
678.056     84.547   -18.095
687.919     84.699   -96.007
697.925     84.913  -174.194
708.077     84.980    97.295
718.376     84.794    28.958
728.825     84.363   -52.586
739.426     83.939  -137.364
750.181     83.777   135.945
761.093     83.825    49.744
772.163     83.732   -34.941
783.394     83.235  -119.395
794.789     82.348   154.833
806.349     81.244    67.639
818.078     80.014   -19.850
829.977     78.631  -106.516
842.050     77.228   168.037
854.298     76.283    84.306
866.724     76.278     2.638
879.330     77.176   -79.265
892.120     78.468  -165.379
905.097     79.803   101.926
918.262     81.246    -2.559
931.618     82.492   -98.558
945.169     83.591   157.138
958.917     84.412    50.058
972.864     85.100   -59.901
987.015     85.751  -171.651
1001.37     86.259    75.710
1015.94     86.459   -37.946
1030.71     86.323  -153.778
1045.71     86.059    87.059
1060.92     85.941   -33.680
1076.35     85.829  -155.272
1092.00     85.274    83.686
1107.89     84.168   -30.074
1124.00     82.754  -151.258
1140.35     81.571    84.375
1156.94     81.054   -32.870
1173.77     81.354  -147.793
1190.84     82.349    88.537
1208.16     83.560   -36.833
1225.73     84.670  -165.752
1243.56     85.483    62.040
1261.65     85.895   -74.047
1280.00     86.440   134.399
1298.62     87.475   -16.506
1317.51     88.168  -162.660
1336.67     88.018    59.790
1356.11     87.530   -99.460
1375.84     87.285    98.799
1395.85     87.032   -49.937
1416.15     86.415   162.581
1436.75     85.533     5.050
1457.65     84.410  -160.810
1478.85     83.030    35.559
1500.36     81.907  -115.699
1522.19     81.194    77.385
1544.33     80.976   -69.663
1566.79     81.353   128.695
1589.58     82.522   -46.735
1612.70     83.500   138.367
1636.16     83.346   -39.715
1659.95     82.983   136.234
1684.10     82.801   -54.667
1708.60     81.663   118.122
1733.45     80.183   -55.309
1758.66     79.931   131.205
1784.24     81.302   -56.936
1810.19     83.034   110.828
1836.52     84.508   -90.153
1863.24     85.792    64.884
1890.34     86.618  -141.214
1917.83     87.190    -4.619
1945.73     87.354   142.676
1974.03     87.097   -69.298
2002.74     86.740    63.842
2031.87     86.443  -162.079
2061.43     85.916   -26.786
2091.41     85.177    97.271
2121.83     84.305  -144.533
2152.69     82.855   -11.764
2184.01     81.611   116.526
2215.77     80.757  -115.652
2248.00     79.627     2.033
2280.70     78.102   104.351
2313.87     76.019  -160.564
2347.53     72.462   -49.755
2381.68     70.099   109.834
2416.32     72.105   -85.535
2451.46     76.521    26.986
2487.12     79.668   102.153
2523.30     81.786   170.520
2560.00     83.020  -109.050
2597.24     83.657   -27.195
2635.01     84.064    48.991
2673.34     84.589   106.081
2712.23     84.412   162.600
2751.68     83.798  -142.355
2791.70     83.519   -75.996
2832.31     83.359   -14.838
2873.50     83.334    35.856
2915.30     83.065    70.983
2957.70     82.675   108.288
3000.72     82.505   156.106
3044.37     82.684  -172.583
3088.65     83.182  -144.712
3133.58     83.565  -136.659
3179.16     83.508  -126.635
3225.40     83.338  -108.780
3272.31     83.345  -101.850
3319.91     82.853  -110.281
3368.20     81.938  -117.778
3417.19     81.194  -117.252
3466.89     80.588  -120.955
3517.32     80.135  -148.049
3568.48     79.857  -174.812
3620.39     79.965   168.950
3673.05     80.351   136.739
3726.47     79.778    86.623
3780.67     78.797    40.148
3835.67     78.270    -0.561
3891.46     78.309   -54.885
3948.06     78.968  -128.497
4005.49     79.615   164.152
4063.75     79.661    88.414
4122.86     79.098    -0.980
4182.82     79.081   -97.222
4243.66     79.141   175.259
4305.39     79.009    81.708
4368.01     79.451   -26.781
4431.55     79.805  -130.002
4496.01     80.150   108.057
4561.40     81.014   -32.900
4627.75     82.149  -166.108
4695.06     83.256    47.742
4763.35     84.240  -114.304
4832.64     84.816    90.532
4902.93     84.951   -84.808
4974.24     84.653    80.476
5046.60     84.065  -101.959
5120.00     83.333    67.170
5194.47     83.300  -123.173
5270.03     84.060    44.658
5346.68     84.954   172.063
5424.45     85.329   -56.799
5503.35     84.891    64.586
5583.40     84.015   165.727
5664.61     83.086   -73.212
5747.01     82.204    23.892
5830.60     81.536   121.428
5915.41     81.293  -150.017
6001.45     81.350   -81.927
6088.74     81.538   -12.710
6177.30     81.895    36.909
6267.15     82.152    93.232
6358.31     81.968   114.461
6450.80     81.744   144.322
6544.62     81.657   157.407
6639.82     81.262   159.584
6736.40     80.441   156.875
6834.38     80.004   143.415
6933.79     80.343   130.984
7034.64     80.379    90.271
7136.96     80.302    48.121
7240.77     81.335   -11.827
7346.09     82.620   -84.369
7452.94     83.194  -174.106
7561.35     83.498    86.665
7671.33     83.397   -22.495
7782.91     82.800  -146.779
7896.12     82.142    88.861
8010.97     81.449   -67.046
8127.49     81.197   142.488
8245.71     81.159   -22.084
8365.65     81.114   158.813
8487.33     81.295   -43.229
8610.78     81.347   106.094
8736.03     81.285  -105.664
8863.09     80.745    11.777
8992.01     80.155   128.272
9122.80     81.205  -121.667
9255.50     82.326   -52.247
9390.12     81.743     9.850
9526.70     81.106    67.839
9665.27     80.552   114.560
9805.86     80.781   148.458
9948.49     82.494   157.309
10093.2     84.460   143.453
10240.0     86.059   109.372
10388.9     86.939    65.821
10540.1     86.676    -4.943
10693.4     85.222   -93.879
10848.9     83.478   171.635
11006.7     82.595    65.398
11166.8     82.523   -69.011
11329.2     81.973   139.089
11494.0     80.627   -22.099
11661.2     79.480   156.639
11830.8     78.401   -45.055
12002.9     77.091    96.851
12177.5     75.460  -148.410
12354.6     72.655   -70.097
12534.3     69.096   -43.166
12716.6     67.933   -52.198
12901.6     68.896   -43.513
13089.2     70.948   -22.545
13279.6     73.980   -20.768
13472.8     76.203   -48.246
13668.8     77.533   -97.784
13867.6     78.663  -160.961
14069.3     79.590    92.623
14273.9     76.961   -53.447
14481.5     65.806   173.285
14692.2     58.347    92.022
14905.9     63.731   -18.224
15122.7     69.372   138.499
15342.7     69.674   -94.747
15565.8     67.408    18.978
15792.2     63.903   117.512
16021.9     61.927  -147.404
16255.0     63.573   -73.055
16491.4     67.240   -38.451
16731.3     69.979   -57.240
16974.7     70.632  -109.620
17221.6     70.479  -170.262
17472.1     70.086    96.167
17726.2     68.988   -28.935
17984.0     68.258  -170.055
18245.6     68.251    24.096
18511.0     67.949   177.641
18780.2     66.795   -68.378
19053.4     63.284    26.042
19330.5     58.753   103.807
19611.7     56.508   155.995
19897.0     55.744   164.485
20186.4     55.497   136.450
20480.0     55.692    86.507
20777.9     55.689     8.806
21080.1     55.684   -96.961
21386.7     55.696   119.846
21697.8     55.678   -22.036
22013.4     55.181    72.503
22333.6     54.683   167.039
22658.4     54.186   -98.410
22988.0     53.688    -3.880
23322.4     53.191    90.650
23661.6     52.693  -174.804
24005.8     52.196   -80.276
24355.0     51.698    14.255
24709.2     51.201   108.806
25068.6     50.703  -156.656
25433.2     50.205   -62.110
25803.2     49.708    32.412
26178.5     49.210   126.954
26559.3     48.713  -138.515
26945.6     48.215   -43.974
27337.5     47.718    50.572
27735.2     47.220   145.093
28138.6     46.723  -120.365
28547.9     46.225   -25.830
28963.1     45.727    68.716
29384.4     45.230   163.249
29811.8     44.732  -102.212
30245.4     44.235    -7.669
30685.3     43.737    86.851
31131.7     43.240  -178.569
31584.5     42.742   -84.061
32043.9     42.245    10.478
32510.0     41.747   105.014
32982.8     41.249  -160.435
33462.6     40.752   -65.907
33949.3     40.254    28.635
34443.1     39.757   123.173
34944.1     39.259  -142.291
35452.4     38.762   -47.759
35968.0     38.264    46.791
36491.2     37.767   141.323
37022.0     37.269  -124.144
37560.5     36.772   -29.607
38106.8     36.274    64.937
38661.1     35.776   159.471
39223.4     35.279  -105.986
39793.9     34.781   -11.445
