Freq[Hz]     dBSPL  Phase[Deg]
5.00000     52.666    43.288
5.07273     52.821    42.910
5.14651     52.975    42.526
5.22137     53.130    42.137
5.29732     53.284    41.742
5.37437     53.439    41.341
5.45254     53.594    40.934
5.53185     53.748    40.522
5.61231     53.903    40.103
5.69394     54.057    39.679
5.77676     54.212    39.248
5.86079     54.366    38.811
5.94604     54.521    38.367
6.03252     54.676    37.918
6.12027     54.830    37.461
6.20929     54.985    36.998
6.29961     55.139    36.528
6.39124     55.294    36.052
6.48420     55.448    35.568
6.57851     55.603    35.078
6.67420     55.757    34.580
6.77128     55.912    34.075
6.86977     56.067    33.563
6.96969     56.221    33.043
7.07107     56.376    32.516
7.17392     56.530    31.981
7.27827     56.685    31.438
7.38413     56.839    30.887
7.49154     56.994    30.328
7.60050     57.149    29.762
7.71105     57.303    29.187
7.82321     57.458    28.603
7.93701     57.612    28.011
8.05245     57.767    27.411
8.16958     57.921    26.802
8.28841     58.076    26.184
8.40896     58.231    25.556
8.53128     58.385    24.920
8.65537     58.540    24.275
8.78126     58.694    23.620
8.90899     58.849    22.956
9.03857     59.003    22.282
9.17004     59.158    21.598
9.30342     59.313    20.904
9.43874     59.467    20.200
9.57603     59.622    19.486
9.71532     59.776    18.762
9.85663     59.931    18.026
10.0000     60.085    17.281
10.1455     60.240    16.524
10.2930     60.394    15.757
10.4427     60.549    14.978
10.5946     60.704    14.188
10.7487     60.858    13.386
10.9051     61.013    12.573
11.0637     61.167    11.748
11.2246     61.322    10.911
11.3879     61.476    10.062
11.5535     61.631     9.200
11.7216     61.786     8.326
11.8921     61.940     7.439
12.0650     62.095     6.539
12.2405     62.249     5.627
12.4186     62.404     4.701
12.5992     62.558     3.761
12.7825     62.713     2.808
12.9684     62.868     1.841
13.1570     63.022     0.860
13.3484     63.177    -0.136
13.5426     63.331    -1.146
13.7395     63.486    -2.170
13.9394     63.640    -3.210
14.1421     63.795    -4.264
14.3478     63.950    -5.334
14.5565     64.104    -6.420
14.7683     64.259    -7.521
14.9831     64.413    -8.639
15.2010     64.568    -9.772
15.4221     64.722   -10.922
15.6464     64.877   -12.089
15.8740     65.031   -13.273
16.1049     65.186   -14.474
16.3392     65.341   -15.692
16.5768     65.495   -16.928
16.8179     65.650   -18.183
17.0626     65.804   -19.455
17.3107     65.959   -20.746
17.5625     66.113   -22.056
17.8180     66.268   -23.384
18.0771     66.423   -24.732
18.3401     66.577   -26.100
18.6068     66.732   -27.488
18.8775     66.886   -28.895
19.1521     67.041   -30.324
19.4306     67.195   -31.773
19.7133     67.350   -33.243
20.0000     67.505   -34.734
20.2909     67.659   -36.247
20.5860     67.814   -37.782
20.8855     67.946   -39.193
21.1893     68.079   -40.605
21.4975     68.211   -42.016
21.8102     68.344   -43.427
22.1274     68.476   -44.838
22.4492     68.609   -46.249
22.7758     68.741   -47.660
23.1071     68.874   -49.071
23.4432     69.007   -50.489
23.7841     69.201   -52.305
24.1301     69.394   -54.120
24.4811     69.588   -55.936
24.8372     69.781   -57.752
25.1984     69.975   -59.567
25.5649     70.168   -61.383
25.9368     70.362   -63.199
26.3141     70.555   -65.014
26.6968     70.769   -67.281
27.0851     70.986   -69.620
27.4791     71.203   -71.960
27.8788     71.420   -74.300
28.2843     71.637   -76.640
28.6957     71.854   -78.980
29.1131     72.071   -81.319
29.5365     72.290   -83.922
29.9661     72.510   -86.726
30.4020     72.731   -89.531
30.8442     72.951   -92.336
31.2929     73.171   -95.141
31.7480     73.391   -97.946
32.2098     73.612  -100.751
32.6783     73.826  -103.955
33.1536     74.041  -107.175
33.6359     74.256  -110.394
34.1251     74.470  -113.613
34.6215     74.685  -116.832
35.1250     74.900  -120.051
35.6359     75.105  -123.611
36.1543     75.309  -127.194
36.6802     75.513  -130.777
37.2137     75.717  -134.359
37.7550     75.921  -137.942
38.3041     76.121  -141.651
38.8613     76.313  -145.551
39.4265     76.506  -149.452
40.0000     76.698  -153.353
40.5818     76.890  -157.254
41.1721     77.080  -161.230
41.7710     77.262  -165.413
42.3785     77.444  -169.597
42.9949     77.626  -173.781
43.6203     77.808  -177.964
44.2548     77.987   177.725
44.8985     78.162   173.280
45.5515     78.337   168.834
46.2141     78.511   164.389
46.8863     78.686   159.940
47.5683     78.857   155.239
48.2602     79.028   150.539
48.9621     79.199   145.839
49.6743     79.370   141.139
50.3968     79.539   136.225
51.1299     79.709   131.265
51.8736     79.879   126.304
52.6281     80.049   121.344
53.3936     80.219   116.149
54.1702     80.389   110.917
54.9581     80.559   105.684
55.7575     80.729   100.419
56.5685     80.899    94.904
57.3914     81.069    89.389
58.2261     81.240    83.874
59.0730     81.410    78.196
59.9323     81.580    72.392
60.8040     81.750    66.588
61.6884     81.920    60.730
62.5857     82.089    54.637
63.4960     82.258    48.544
64.4196     82.427    42.451
65.3566     82.594    36.083
66.3073     82.761    29.705
67.2717     82.929    23.327
68.2502     83.095    16.699
69.2429     83.261    10.040
70.2501     83.427     3.380
71.2719     83.592    -3.542
72.3086     83.757   -10.481
73.3603     83.923   -17.452
74.4274     84.088   -24.674
75.5099     84.253   -31.895
76.6083     84.418   -39.230
77.7226     84.584   -46.739
78.8531     84.749   -54.248
80.0000     84.915   -61.987
81.1636     85.080   -69.791
82.3442     85.246   -77.673
83.5419     85.411   -85.777
84.7570     85.575   -93.880
85.9899     85.739  -102.236
87.2406     85.902  -110.642
88.5096     86.064  -119.194
89.7970     86.224  -127.900
91.1031     86.384  -136.669
92.4282     86.542  -145.670
93.7726     86.699  -154.676
95.1366     86.853  -163.967
96.5204     87.007  -173.258
97.9243     87.159   177.201
99.3486     87.311   167.628
100.794     87.458   157.984
102.260     87.605   148.325
103.747     87.755   138.278
105.256     87.907   128.141
106.787     88.060   117.759
108.340     88.212   107.337
109.916     88.366    96.634
111.515     88.520    85.886
113.137     88.676    74.877
114.783     88.831    63.772
116.452     88.987    52.462
118.146     89.142    40.981
119.865     89.298    29.368
121.608     89.452    17.494
123.377     89.605     5.519
125.171     89.755    -6.702
126.992     89.903   -19.091
128.839     90.049   -31.612
130.713     90.190   -44.417
132.615     90.327   -57.350
134.543     90.461   -70.453
136.500     90.589   -83.807
138.486     90.713   -97.303
140.500     90.833  -110.967
142.544     90.948  -124.886
144.617     91.059  -138.958
146.721     91.167  -153.192
148.855     91.271  -167.661
151.020     91.373   177.674
153.217     91.473   162.836
155.445     91.572   147.818
157.706     91.671   132.553
160.000     91.771   117.076
162.327     91.871   101.399
164.688     91.973    85.515
167.084     92.076    69.416
169.514     92.180    53.047
171.980     92.284    36.441
174.481     92.389    19.601
177.019     92.494     2.518
179.594     92.596   -14.815
182.206     92.695   -32.405
184.856     92.787   -50.255
187.545     92.872   -68.363
190.273     92.947   -86.737
193.041     93.012  -105.347
195.849     93.069  -124.179
198.697     93.122  -143.230
201.587     93.174  -162.506
204.520     93.228   177.972
207.494     93.288   158.175
210.512     93.354   138.073
213.574     93.423   117.644
216.681     93.493    96.879
219.833     93.560    75.780
223.030     93.621    54.369
226.274     93.676    32.687
229.565     93.726    10.763
232.905     93.775   -11.384
236.292     93.824   -33.752
239.729     93.879   -56.358
243.216     93.940   -79.242
246.754     94.010  -102.503
250.343     94.083  -126.156
253.984     94.156  -150.237
257.678     94.224  -174.762
261.426     94.285   160.201
265.229     94.341   134.711
269.087     94.394   108.801
273.001     94.447    82.457
276.972     94.502    55.739
281.000     94.558    28.729
285.088     94.616     1.444
289.234     94.666   -26.040
293.441     94.688   -53.663
297.709     94.651   -81.194
302.040     94.574  -109.100
306.433     94.537  -138.060
310.890     94.543  -160.966
315.412     94.574   172.295
320.000     94.607   145.211
324.655     94.624   117.725
329.377     94.622    89.789
334.168     94.604    61.398
339.028     94.578    32.423
343.959     94.554     2.809
348.962     94.536   -27.521
354.038     94.520   -58.660
359.188     94.504   -90.579
364.412     94.485  -123.199
369.713     94.461  -156.456
375.090     94.429   169.724
380.546     94.389   135.423
386.081     94.349   100.741
391.697     94.326    65.672
397.394     94.330    30.099
403.175     94.351    -6.125
409.039     94.370   -43.057
414.989     94.371   -80.672
421.025     94.351  -118.958
427.149     94.310  -157.983
433.362     94.245   162.145
439.665     94.153   121.318
446.060     94.044    79.471
452.548     93.940    36.584
459.131     93.867    -7.347
465.809     93.842   -52.245
472.584     93.879   -97.976
479.458     93.978  -144.319
486.432     94.130   168.745
493.507     94.311   121.018
500.686     94.476    72.337
507.968     94.590    12.565
515.357     94.616   -28.115
522.853     94.611   -79.990
530.458     94.577  -132.810
538.174     94.522   173.420
546.002     94.438   118.751
553.943     94.314    63.181
562.001     94.141     6.679
570.175     93.931   -50.733
578.469     93.711  -109.000
586.883     93.511  -168.044
595.419     93.348   132.225
604.080     93.224    71.935
612.866     93.153    11.154
621.780     93.155   -50.210
630.824     93.238  -112.349
640.000     93.396  -175.443
649.309     93.609   120.329
658.753     93.850    54.763
668.335     94.096   -12.364
678.056     94.339   -81.202
687.919     94.582  -151.719
697.925     94.822   136.220
708.077     95.064    52.352
718.376     95.190   -11.484
728.825     95.261   -87.249
739.426     95.242  -164.317
750.181     95.154   117.327
761.093     95.021    37.871
772.163     94.844   -42.321
783.394     94.588  -123.021
794.789     94.226   155.720
806.349     93.776    73.692
818.078     93.305    -9.159
829.977     92.884   -92.617
842.050     92.546  -176.475
854.298     92.299    99.125
866.724     92.171    13.767
879.330     92.196   -72.868
892.120     92.356  -160.895
905.097     92.576   109.519
918.262     92.804    12.268
931.618     92.992   -75.631
945.169     93.190  -171.486
958.917     93.376    90.843
972.864     93.532    -8.443
987.015     93.646  -109.248
1001.37     93.723   148.515
1015.94     93.766    44.951
1030.71     93.771   -59.849
1045.71     93.717  -166.003
1060.92     93.616    86.079
1076.35     93.558   -26.059
1092.00     93.603  -140.810
1107.89     93.710   111.250
1124.00     93.792    -3.444
1140.35     93.796  -122.477
1156.94     93.762   123.017
1173.77     93.757     7.957
1190.84     93.780  -117.592
1208.16     93.739   116.984
1225.73     93.602    -8.753
1243.56     93.428  -134.797
1261.65     93.214    99.296
1280.00     92.889   -36.956
1298.62     92.525  -173.214
1317.51     92.186    51.338
1336.67     91.786   -74.051
1356.11     91.152   142.859
1375.84     90.591    -2.787
1395.85     90.386  -137.569
1416.15     90.321    89.624
1436.75     90.146   -52.420
1457.65     89.882   154.513
1478.85     89.717     0.007
1500.36     89.696  -144.657
1522.19     89.598    50.073
1544.33     89.408   -95.088
1566.79     89.122   109.229
1589.58     88.644   -56.317
1612.70     88.033   138.382
1636.16     87.539   -26.052
1659.95     87.230   171.781
1684.10     86.966     0.858
1708.60     86.888  -175.292
1733.45     87.109    18.254
1758.66     87.402  -150.568
1784.24     87.535    22.491
1810.19     87.410  -165.533
1836.52     87.001     6.662
1863.24     86.335  -179.964
1890.34     85.699    -4.029
1917.83     85.292   159.617
1945.73     85.401   -27.438
1974.03     86.049   143.588
2002.74     86.923   -63.020
2031.87     87.599    86.661
2061.43     87.840  -125.497
2091.41     87.564    10.542
2121.83     86.991   139.206
2152.69     86.251   -74.248
2184.01     85.385    73.497
2215.77     84.713  -139.885
2248.00     84.642    -5.716
2280.70     85.326   114.289
2313.87     86.125  -132.842
2347.53     86.395   -20.459
2381.68     86.371    96.314
2416.32     86.199  -154.373
2451.46     85.689   -55.874
2487.12     84.898    31.188
2523.30     84.029   109.071
2560.00     83.452  -162.110
2597.24     82.919   -71.857
2635.01     82.272    17.538
2673.34     81.901    87.892
2712.23     82.345   156.705
2751.68     83.545  -135.106
2791.70     84.713   -58.357
2832.31     85.602    10.602
2873.50     86.052    69.818
2915.30     86.064   116.054
2957.70     85.855   164.577
3000.72     85.372  -137.579
3044.37     84.373   -95.134
3088.65     82.477   -48.650
3133.58     80.478   -11.196
3179.16     79.394    39.301
3225.40     79.498    96.583
3272.31     80.803   134.722
3319.91     82.400   153.515
3368.20     83.605   173.279
3417.19     84.355  -159.204
3466.89     84.895  -136.761
3517.32     85.806  -140.366
3568.48     86.945  -145.599
3620.39     87.917  -142.374
3673.05     88.700  -157.692
3726.47     89.167   170.510
3780.67     89.242   145.182
3835.67     89.125   127.205
3891.46     89.029    96.109
3948.06     89.142    46.707
4005.49     89.597     2.970
4063.75     90.259   -47.091
4122.86     90.942  -105.462
4182.82     91.509  -173.802
4243.66     91.854   114.978
4305.39     91.972    37.331
4368.01     92.029   -47.019
4431.55     92.075  -124.158
4496.01     91.990   137.881
4561.40     91.654    18.670
4627.75     90.948   -90.682
4695.06     89.814   154.302
4763.35     88.675    34.606
4832.64     88.239   -72.886
4902.93     88.693   160.162
4974.24     89.706     9.090
5046.60     90.549  -138.327
5120.00     90.967    59.737
5194.47     91.167  -103.730
5270.03     91.141    94.349
5346.68     90.726  -101.447
5424.45     90.317    74.671
5503.35     90.361  -118.326
5583.40     90.508    23.122
5664.61     90.208  -177.006
5747.01     89.716   -41.094
5830.60     89.536    93.324
5915.41     89.598  -143.584
6001.45     89.484   -42.370
6088.74     88.947    63.237
6177.30     88.156   153.198
6267.15     87.369  -108.900
6358.31     86.404   -44.776
6450.80     85.333    30.089
6544.62     84.713    92.341
6639.82     84.410   142.813
6736.40     83.576  -176.771
6834.38     82.860  -148.322
6933.79     82.165  -117.036
7034.64     80.677  -109.839
7136.96     79.361  -103.175
7240.77     77.698  -113.232
7346.09     75.845  -116.965
7452.94     76.686  -124.874
7561.35     79.745  -158.481
7671.33     82.091   142.394
7782.91     82.832    61.660
7896.12     81.843   -20.950
8010.97     79.412  -130.000
8127.49     77.070   135.244
8245.71     75.699    32.010
8365.65     74.652   -87.131
8487.33     73.349   128.624
8610.78     70.202   -31.112
8736.03     63.048  -155.131
8863.09     61.666    83.826
8992.01     65.660   -74.382
9122.80     67.288   116.219
9255.50     72.618   -78.806
9390.12     78.740    46.630
9526.70     81.186   148.879
9665.27     81.294  -118.419
9805.86     80.041   -30.182
9948.49     80.289    51.508
10093.2     82.479   110.788
10240.0     83.148   146.517
10388.9     82.862  -173.023
10540.1     83.773  -153.625
10693.4     85.209  -164.404
10848.9     85.274   165.364
11006.7     83.997   123.500
11166.8     82.365    65.171
11329.2     81.349     2.793
11494.0     81.700   -74.158
11661.2     81.353   172.197
11830.8     77.693    42.110
12002.9     73.456   -77.289
12177.5     71.446   145.650
12354.6     67.509   -27.905
12534.3     59.890  -175.484
12716.6     60.993    46.833
12901.6     68.558  -151.754
13089.2     71.673   -39.592
13279.6     72.783    54.565
13472.8     73.242   130.987
13668.8     73.296  -174.770
13867.6     71.544  -130.425
14069.3     69.176   -91.668
14273.9     71.461   -65.279
14481.5     76.345   -77.446
14692.2     78.383  -139.602
14905.9     78.201   141.921
15122.7     77.927    49.673
15342.7     77.835   -66.996
15565.8     76.230   152.742
15792.2     73.462   -11.953
16021.9     69.897   171.714
16255.0     66.838    -7.681
16491.4     67.344   157.537
16731.3     69.714   -92.203
16974.7     70.028   -30.895
17221.6     64.822    21.728
17472.1     58.636    91.041
17726.2     59.017   146.004
17984.0     63.354   154.911
18245.6     67.430   121.105
18511.0     69.223    39.813
18780.2     69.281   -68.405
19053.4     69.069   167.570
19330.5     68.452     8.941
19611.7     67.370   179.094
19897.0     65.633   -37.395
20186.4     64.560    78.713
20480.0     64.419   174.661
20777.9     64.419  -115.680
21080.1     64.419   -71.778
21386.7     64.419   -63.226
21697.8     64.418   -51.069
22013.4     64.129   163.146
22333.6     63.840    17.362
22658.4     63.551  -128.422
22988.0     63.262    85.794
23322.4     62.973   -59.990
23661.6     62.684   154.226
24005.8     62.395     8.442
24355.0     62.106  -137.343
24709.2     61.817    76.873
25068.6     61.527   -68.911
25433.2     61.238   145.305
25803.2     60.949    -0.479
26178.5     60.660  -146.263
26559.3     60.371    67.952
26945.6     60.082   -77.832
27337.5     59.793   136.384
27735.2     59.504    -9.400
28138.6     59.215  -155.184
28547.9     58.926    59.032
28963.1     58.637   -86.752
29384.4     58.348   127.463
29811.8     58.059   -18.321
30245.4     57.770  -164.105
30685.3     57.481    50.111
31131.7     57.192   -95.673
31584.5     56.903   118.543
32043.9     56.614   -27.241
32510.0     56.325  -173.026
32982.8     56.035    41.190
33462.6     55.746  -104.594
33949.3     55.457   109.622
34443.1     55.168   -36.162
34944.1     54.879   178.054
35452.4     54.590    32.270
35968.0     54.301  -113.515
36491.2     54.012   100.701
37022.0     53.723   -45.083
37560.5     53.434   169.133
38106.8     53.145    23.349
38661.1     52.856  -122.435
39223.4     52.567    91.781
39793.9     52.278   -54.004
