Freq[Hz]     dBSPL  Phase[Deg]
5.00000     42.578    94.061
5.07273     42.787    93.638
5.14651     42.995    93.209
5.22137     43.203    92.773
5.29732     43.411    92.331
5.37437     43.620    91.883
5.45254     43.828    91.429
5.53185     44.036    90.967
5.61231     44.245    90.499
5.69394     44.453    90.024
5.77676     44.661    89.543
5.86079     44.869    89.054
5.94604     45.078    88.558
6.03252     45.286    88.055
6.12027     45.494    87.545
6.20929     45.703    87.027
6.29961     45.911    86.502
6.39124     46.119    85.969
6.48420     46.327    85.428
6.57851     46.536    84.879
6.67420     46.744    84.323
6.77128     46.952    83.758
6.86977     47.161    83.185
6.96969     47.369    82.604
7.07107     47.577    82.014
7.17392     47.785    81.416
7.27827     47.994    80.809
7.38413     48.202    80.193
7.49154     48.410    79.569
7.60050     48.619    78.935
7.71105     48.827    78.292
7.82321     49.035    77.639
7.93701     49.243    76.977
8.05245     49.452    76.306
8.16958     49.660    75.625
8.28841     49.868    74.933
8.40896     50.077    74.232
8.53128     50.285    73.521
8.65537     50.493    72.799
8.78126     50.701    72.067
8.90899     50.910    71.324
9.03857     51.118    70.570
9.17004     51.326    69.805
9.30342     51.535    69.030
9.43874     51.743    68.242
9.57603     51.951    67.444
9.71532     52.159    66.634
9.85663     52.368    65.812
10.0000     52.576    64.978
10.1455     52.784    64.132
10.2930     52.993    63.273
10.4427     53.201    62.403
10.5946     53.409    61.519
10.7487     53.617    60.623
10.9051     53.826    59.713
11.0637     54.034    58.791
11.2246     54.242    57.855
11.3879     54.451    56.905
11.5535     54.659    55.942
11.7216     54.867    54.964
11.8921     55.075    53.972
12.0650     55.284    52.966
12.2405     55.492    51.945
12.4186     55.700    50.910
12.5992     55.909    49.859
12.7825     56.117    48.793
12.9684     56.325    47.712
13.1570     56.534    46.615
13.3484     56.742    45.501
13.5426     56.950    44.372
13.7395     57.158    43.226
13.9394     57.367    42.064
14.1421     57.575    40.885
14.3478     57.783    39.688
14.5565     57.992    38.474
14.7683     58.200    37.243
14.9831     58.408    35.993
15.2010     58.616    34.726
15.4221     58.825    33.439
15.6464     59.033    32.135
15.8740     59.241    30.811
16.1049     59.450    29.468
16.3392     59.658    28.105
16.5768     59.866    26.723
16.8179     60.074    25.321
17.0626     60.283    23.898
17.3107     60.491    22.454
17.5625     60.699    20.989
17.8180     60.908    19.504
18.0771     61.116    17.996
18.3401     61.324    16.467
18.6068     61.532    14.915
18.8775     61.741    13.341
19.1521     61.949    11.744
19.4306     62.157    10.123
19.7133     62.366     8.479
20.0000     62.574     6.812
20.2909     62.782     5.120
20.5860     62.990     3.403
20.8855     63.176     1.862
21.1893     63.362     0.320
21.4975     63.548    -1.221
21.8102     63.734    -2.762
22.1274     63.920    -4.304
22.4492     64.106    -5.845
22.7758     64.292    -7.386
23.1071     64.478    -8.928
23.4432     64.665   -10.478
23.7841     64.913   -12.573
24.1301     65.160   -14.668
24.4811     65.408   -16.763
24.8372     65.656   -18.858
25.1984     65.903   -20.953
25.5649     66.151   -23.048
25.9368     66.399   -25.144
26.3141     66.646   -27.239
26.6968     66.908   -29.844
27.0851     67.171   -32.532
27.4791     67.434   -35.220
27.8788     67.698   -37.908
28.2843     67.961   -40.596
28.6957     68.224   -43.284
29.1131     68.488   -45.972
29.5365     68.749   -48.934
29.9661     69.008   -52.109
30.4020     69.267   -55.284
30.8442     69.527   -58.459
31.2929     69.786   -61.633
31.7480     70.046   -64.808
32.2098     70.305   -67.983
32.6783     70.554   -71.557
33.1536     70.802   -75.146
33.6359     71.051   -78.735
34.1251     71.299   -82.323
34.6215     71.548   -85.912
35.1250     71.796   -89.501
35.6359     72.030   -93.420
36.1543     72.264   -97.361
36.6802     72.497  -101.302
37.2137     72.730  -105.243
37.7550     72.964  -109.184
38.3041     73.191  -113.243
38.8613     73.408  -117.481
39.4265     73.626  -121.720
40.0000     73.843  -125.958
40.5818     74.061  -130.196
41.1721     74.275  -134.502
41.7710     74.478  -138.995
42.3785     74.681  -143.488
42.9949     74.884  -147.981
43.6203     75.088  -152.474
44.2548     75.285  -157.076
44.8985     75.478  -161.794
45.5515     75.670  -166.512
46.2141     75.862  -171.231
46.8863     76.054  -175.952
47.5683     76.239   179.118
48.2602     76.424   174.188
48.9621     76.609   169.257
49.6743     76.794   164.327
50.3968     76.975   159.223
51.1299     77.157   154.080
51.8736     77.338   148.937
52.6281     77.519   143.794
53.3936     77.699   138.457
54.1702     77.879   133.089
54.9581     78.059   127.721
55.7575     78.239   122.324
56.5685     78.419   116.713
57.3914     78.599   111.102
58.2261     78.779   105.491
59.0730     78.959    99.732
59.9323     79.139    93.860
60.8040     79.319    87.988
61.6884     79.498    82.064
62.5857     79.677    75.915
63.4960     79.856    69.766
64.4196     80.034    63.618
65.3566     80.211    57.191
66.3073     80.387    50.754
67.2717     80.563    44.317
68.2502     80.735    37.619
69.2429     80.908    30.887
70.2501     81.080    24.156
71.2719     81.246    17.146
72.3086     81.413    10.118
73.3603     81.579     3.057
74.4274     81.739    -4.264
75.5099     81.899   -11.585
76.6083     82.057   -19.019
77.7226     82.210   -26.627
78.8531     82.364   -34.235
80.0000     82.513   -42.062
81.1636     82.662   -49.950
82.3442     82.809   -57.911
83.5419     82.953   -66.076
84.7570     83.097   -74.241
85.9899     83.239   -82.638
87.2406     83.381   -91.080
88.5096     83.523   -99.660
89.7970     83.664  -108.386
91.1031     83.805  -117.173
92.4282     83.945  -126.188
93.7726     84.086  -135.207
95.1366     84.226  -144.515
96.5204     84.365  -153.823
97.9243     84.503  -163.387
99.3486     84.640  -172.983
100.794     84.771   177.353
102.260     84.901   167.673
103.747     85.033   157.613
105.256     85.166   147.465
106.787     85.297   137.086
108.340     85.427   126.670
109.916     85.555   115.997
111.515     85.682   105.283
113.137     85.808    94.333
114.783     85.932    83.296
116.452     86.053    72.073
118.146     86.172    60.694
119.865     86.289    49.194
121.608     86.400    37.458
123.377     86.508    25.630
125.171     86.610    13.580
126.992     86.706     1.383
128.839     86.798   -10.931
130.713     86.881   -23.490
132.615     86.962   -36.159
134.543     87.038   -48.976
136.500     87.109   -62.013
138.486     87.180   -75.180
140.500     87.248   -88.503
142.544     87.315  -102.075
144.617     87.381  -115.804
146.721     87.447  -129.699
148.855     87.512  -143.839
151.020     87.576  -158.182
153.217     87.640  -172.700
155.445     87.704   172.601
157.706     87.768   157.662
160.000     87.833   142.520
162.327     87.900   127.187
164.688     87.968   111.654
167.084     88.037    95.911
169.514     88.105    79.905
171.980     88.172    63.668
174.481     88.235    47.203
177.019     88.294    30.504
179.594     88.348    13.559
182.206     88.394    -3.641
184.856     88.431   -21.110
187.545     88.456   -38.859
190.273     88.465   -56.905
193.041     88.455   -75.220
195.849     88.427   -93.776
198.697     88.381  -112.542
201.587     88.324  -131.492
204.520     88.261  -150.612
207.494     88.203  -169.906
210.512     88.155   170.598
213.574     88.121   150.858
216.681     88.100   130.837
219.833     88.087   110.502
223.030     88.074    89.859
226.274     88.055    68.951
229.565     88.028    47.814
232.905     87.993    26.469
236.292     87.953     4.909
239.729     87.907   -16.898
243.216     87.854   -39.002
246.754     87.790   -61.489
250.343     87.713   -84.348
253.984     87.624  -107.596
257.678     87.527  -131.249
261.426     87.424  -155.370
265.229     87.324  -179.893
269.087     87.233   155.237
273.001     87.158   130.063
276.972     87.107   104.672
281.000     87.074    79.147
285.088     87.045    53.543
289.234     86.990    27.962
293.441     86.856     2.587
297.709     86.577   -21.938
302.040     86.231   -45.396
306.433     86.067   -68.264
310.890     86.085   -86.216
315.412     86.227  -107.483
320.000     86.426  -129.681
324.655     86.604  -153.087
329.377     86.672  -177.749
334.168     86.588   156.597
339.028     86.311   130.139
343.959     85.875   103.193
348.962     85.317    75.881
354.038     84.676    48.228
359.188     84.000    20.335
364.412     83.351    -7.578
369.713     82.818   -35.334
375.090     82.505   -63.071
380.546     82.469   -91.459
386.081     82.624  -121.246
391.697     82.812  -152.695
397.394     82.897   174.439
403.175     82.824   140.490
409.039     82.603   105.491
414.989     82.274    69.123
421.025     81.900    30.900
427.149     81.557    -9.606
433.362     81.327   -52.478
439.665     81.268   -97.255
446.060     81.369  -142.993
452.548     81.547   171.198
459.131     81.696   125.709
465.809     81.745    80.401
472.584     81.676    34.644
479.458     81.541   -12.403
486.432     81.407   -61.481
493.507     81.351  -112.925
500.686     81.424  -166.077
507.968     81.699   129.173
515.357     81.936    85.771
522.853     82.233    30.901
530.458     82.486   -24.863
538.174     82.665   -82.145
546.002     82.785  -141.117
553.943     82.901   158.445
562.001     83.091    96.938
570.175     83.385    34.694
578.469     83.723   -28.152
586.883     83.984   -91.524
595.419     84.066  -155.287
604.080     83.995   140.635
612.866     83.910    75.871
621.780     83.948    10.047
630.824     84.148   -56.392
640.000     84.450  -122.681
649.309     84.710   171.370
658.753     84.796   105.067
668.335     84.693    37.143
678.056     84.553   -33.398
687.919     84.597  -106.257
697.925     84.909  -179.966
708.077     85.363    96.454
718.376     85.556    33.801
728.825     85.579   -40.716
739.426     85.459  -117.615
750.181     85.383   163.021
761.093     85.461    82.148
772.163     85.624     0.881
783.394     85.727   -80.538
794.789     85.683  -162.570
806.349     85.503   114.287
818.078     85.251    29.924
829.977     84.989   -55.326
842.050     84.728  -140.901
854.298     84.425   133.513
866.724     84.052    47.617
879.330     83.686   -39.254
892.120     83.484  -127.381
905.097     83.525   143.509
918.262     83.754    47.755
931.618     84.009   -38.662
945.169     84.316  -133.593
958.917     84.659   128.522
972.864     85.015    27.815
987.015     85.370   -75.412
1001.37     85.682   179.508
1015.94     85.809    72.888
1030.71     85.671   -36.070
1045.71     85.421  -147.872
1060.92     85.186    98.897
1076.35     84.741   -16.510
1092.00     83.921  -133.526
1107.89     82.886   116.891
1124.00     81.621     2.954
1140.35     80.146  -110.101
1156.94     78.887   146.017
1173.77     78.451    44.028
1190.84     79.256   -68.917
1208.16     80.877   174.414
1225.73     82.419    53.641
1243.56     83.586   -71.517
1261.65     84.590   160.501
1280.00     85.452    21.876
1298.62     85.787  -116.512
1317.51     85.647   103.464
1336.67     85.444   -28.715
1356.11     85.284  -178.965
1375.84     84.982    31.642
1395.85     84.426  -105.732
1416.15     83.777   117.571
1436.75     83.109   -28.263
1457.65     82.560   176.504
1478.85     82.470    22.742
1500.36     82.602  -118.317
1522.19     82.510    80.296
1544.33     82.319   -64.154
1566.79     82.331   138.208
1589.58     82.407   -29.469
1612.70     81.920   163.100
1636.16     80.988    -7.026
1659.95     80.046  -177.753
1684.10     78.955     4.801
1708.60     77.639  -168.284
1733.45     76.528    39.056
1758.66     76.251  -111.669
1784.24     77.102    75.852
1810.19     78.549  -107.980
1836.52     80.083    60.256
1863.24     81.505  -132.361
1890.34     82.027    37.526
1917.83     81.343  -171.676
1945.73     80.378   -12.596
1974.03     78.997   153.668
2002.74     76.511   -46.353
2031.87     74.956   117.783
2061.43     75.985   -74.148
2091.41     78.136    80.560
2121.83     80.051  -143.379
2152.69     81.369     2.225
2184.01     82.045   144.353
2215.77     82.221   -76.535
2248.00     82.154    53.144
2280.70     82.045   174.248
2313.87     82.061   -68.226
2347.53     82.292    51.071
2381.68     82.847   174.214
2416.32     83.640   -70.523
2451.46     84.098    33.802
2487.12     83.508   125.174
2523.30     82.069  -157.692
2560.00     80.708   -71.906
2597.24     78.233    16.657
2635.01     72.797    88.194
2673.34     69.341   103.481
2712.23     71.510   123.551
2751.68     73.951   172.668
2791.70     75.325  -120.443
2832.31     76.824   -52.176
2873.50     77.647    13.711
2915.30     77.944    67.320
2957.70     78.343   123.650
3000.72     78.929  -169.853
3044.37     79.606  -122.808
3088.65     79.998   -76.317
3133.58     79.924   -48.979
3179.16     79.637   -16.919
3225.40     79.264    25.016
3272.31     79.106    53.926
3319.91     79.015    67.356
3368.20     78.576    80.787
3417.19     77.981   100.235
3466.89     76.728   119.892
3517.32     75.215   121.565
3568.48     75.192   127.111
3620.39     76.196   139.773
3673.05     76.578   128.156
3726.47     76.033    98.438
3780.67     75.294    79.657
3835.67     75.381    68.330
3891.46     76.231    39.476
3948.06     76.756   -11.850
4005.49     76.686   -59.522
4063.75     76.502  -110.757
4122.86     76.181  -164.800
4182.82     75.682   133.371
4243.66     75.287    65.057
4305.39     75.138   -11.071
4368.01     75.040   -91.733
4431.55     74.812  -161.810
4496.01     74.071   105.553
4561.40     73.391    -9.589
4627.75     73.514  -111.964
4695.06     73.052   138.135
4763.35     72.401    16.945
4832.64     72.616   -90.507
4902.93     73.498   145.485
4974.24     74.195    -8.001
5046.60     74.292  -154.421
5120.00     74.378    50.605
5194.47     74.863  -107.415
5270.03     75.483    92.788
5346.68     75.953  -103.732
5424.45     76.025    69.712
5503.35     75.314  -125.282
5583.40     74.529    17.789
5664.61     74.450  -178.309
5747.01     74.098   -40.238
5830.60     73.467    97.264
5915.41     73.795  -136.746
6001.45     74.031   -34.034
6088.74     73.499    77.461
6177.30     73.253   174.584
6267.15     73.346   -85.735
6358.31     73.294   -22.832
6450.80     72.807    50.876
6544.62     72.428   109.099
6639.82     72.211   155.274
6736.40     71.086  -166.039
6834.38     69.227  -134.259
6933.79     68.002   -88.455
7034.64     68.562   -71.047
7136.96     69.663   -68.626
7240.77     70.011   -85.629
7346.09     69.931  -108.024
7452.94     68.923  -143.831
7561.35     67.724   175.162
7671.33     67.155   131.907
7782.91     66.817    73.988
7896.12     66.728    11.454
8010.97     66.852   -88.070
8127.49     66.591   172.182
8245.71     64.773    61.569
8365.65     63.099   -47.338
8487.33     64.483  -175.902
8610.78     66.257    28.198
8736.03     64.232  -133.186
8863.09     60.412    70.354
8992.01     62.774   -78.804
9122.80     68.093    85.030
9255.50     68.671  -158.743
9390.12     66.242   -32.493
9526.70     64.233   103.414
9665.27     64.762  -125.277
9805.86     68.002   -23.045
9948.49     70.929    41.377
10093.2     71.839    89.087
10240.0     72.502   126.133
10388.9     73.144   154.509
10540.1     72.626   150.469
10693.4     69.690   120.309
10848.9     63.349    68.690
11006.7     59.198   -51.074
11166.8     60.720   153.783
11329.2     61.618    49.181
11494.0     60.342   -17.574
11661.2     62.024   -95.204
11830.8     65.658   149.066
12002.9     66.644     6.799
12177.5     65.375  -150.376
12354.6     63.877    43.156
12534.3     62.707  -141.516
12716.6     61.734    15.088
12901.6     60.834   160.391
13089.2     58.900   -69.740
13279.6     57.952    56.303
13472.8     60.894   161.909
13668.8     65.434  -135.834
13867.6     68.478  -101.824
14069.3     69.794  -100.725
14273.9     70.440  -122.491
14481.5     69.576  -157.961
14692.2     67.142   144.913
14905.9     65.778    76.660
15122.7     65.790   -20.127
15342.7     65.006  -148.589
15565.8     62.327    61.635
15792.2     59.619  -107.653
16021.9     59.154    61.342
16255.0     59.034  -161.592
16491.4     58.096   -41.866
16731.3     56.913    53.619
16974.7     56.726   133.512
17221.6     58.643  -159.062
17472.1     60.667  -136.538
17726.2     61.078  -151.534
17984.0     59.872   176.184
18245.6     57.894   130.644
18511.0     56.124    55.995
18780.2     54.409   -64.745
19053.4     50.874   119.442
19330.5     47.646  -123.917
19611.7     46.009     2.453
19897.0     48.220   165.347
20186.4     52.207   -61.821
20480.0     52.978    35.608
20777.9     52.978   105.267
21080.1     52.978   149.169
21386.7     52.978   157.720
21697.8     52.979   169.875
22013.4     52.688     9.315
22333.6     52.398  -151.246
22658.4     52.107    48.193
22988.0     51.817  -112.368
23322.4     51.526    87.071
23661.6     51.236   -73.490
24005.8     50.946   125.949
24355.0     50.655   -34.612
24709.2     50.365   164.827
25068.6     50.074     4.266
25433.2     49.784  -156.295
25803.2     49.493    43.144
26178.5     49.203  -117.417
26559.3     48.912    82.022
26945.6     48.622   -78.539
27337.5     48.331   120.901
27735.2     48.041   -39.660
28138.6     47.751   159.779
28547.9     47.460    -0.782
28963.1     47.170  -161.343
29384.4     46.879    38.096
29811.8     46.589  -122.465
30245.4     46.298    76.974
30685.3     46.008   -83.587
31131.7     45.717   115.852
31584.5     45.427   -44.709
32043.9     45.136   154.730
32510.0     44.846    -5.831
32982.8     44.556  -166.392
33462.6     44.265    33.048
33949.3     43.975  -127.513
34443.1     43.684    71.926
34944.1     43.394   -88.635
35452.4     43.103   110.804
35968.0     42.813   -49.757
36491.2     42.522   149.682
37022.0     42.232   -10.879
37560.5     41.941  -171.440
38106.8     41.651    27.999
38661.1     41.361  -132.562
39223.4     41.070    66.877
39793.9     40.780   -93.684
