Freq[Hz]     dBSPL  Phase[Deg]
5.00000     54.652    42.541
5.07273     54.798    42.168
5.14651     54.945    41.791
5.22137     55.092    41.408
5.29732     55.239    41.019
5.37437     55.385    40.624
5.45254     55.532    40.224
5.53185     55.679    39.818
5.61231     55.825    39.406
5.69394     55.972    38.989
5.77676     56.119    38.565
5.86079     56.266    38.135
5.94604     56.412    37.698
6.03252     56.559    37.255
6.12027     56.706    36.806
6.20929     56.853    36.351
6.29961     56.999    35.888
6.39124     57.146    35.419
6.48420     57.293    34.943
6.57851     57.439    34.461
6.67420     57.586    33.971
6.77128     57.733    33.474
6.86977     57.880    32.970
6.96969     58.026    32.458
7.07107     58.173    31.939
7.17392     58.320    31.413
7.27827     58.467    30.879
7.38413     58.613    30.337
7.49154     58.760    29.787
7.60050     58.907    29.229
7.71105     59.053    28.664
7.82321     59.200    28.089
7.93701     59.347    27.507
8.05245     59.494    26.916
8.16958     59.640    26.317
8.28841     59.787    25.708
8.40896     59.934    25.091
8.53128     60.081    24.465
8.65537     60.227    23.830
8.78126     60.374    23.185
8.90899     60.521    22.532
9.03857     60.667    21.868
9.17004     60.814    21.195
9.30342     60.961    20.513
9.43874     61.108    19.820
9.57603     61.254    19.117
9.71532     61.401    18.404
9.85663     61.548    17.681
10.0000     61.695    16.947
10.1455     61.841    16.203
10.2930     61.988    15.447
10.4427     62.135    14.681
10.5946     62.281    13.903
10.7487     62.428    13.115
10.9051     62.575    12.314
11.0637     62.722    11.502
11.2246     62.868    10.679
11.3879     63.015     9.843
11.5535     63.162     8.995
11.7216     63.309     8.135
11.8921     63.455     7.262
12.0650     63.602     6.377
12.2405     63.749     5.478
12.4186     63.895     4.567
12.5992     64.042     3.642
12.7825     64.189     2.704
12.9684     64.336     1.753
13.1570     64.482     0.787
13.3484     64.629    -0.192
13.5426     64.776    -1.186
13.7395     64.923    -2.195
13.9394     65.069    -3.218
14.1421     65.216    -4.255
14.3478     65.363    -5.308
14.5565     65.509    -6.377
14.7683     65.656    -7.460
14.9831     65.803    -8.560
15.2010     65.950    -9.675
15.4221     66.096   -10.807
15.6464     66.243   -11.955
15.8740     66.390   -13.120
16.1049     66.537   -14.302
16.3392     66.683   -15.501
16.5768     66.830   -16.718
16.8179     66.977   -17.952
17.0626     67.123   -19.204
17.3107     67.270   -20.475
17.5625     67.417   -21.763
17.8180     67.564   -23.071
18.0771     67.710   -24.398
18.3401     67.857   -25.744
18.6068     68.004   -27.109
18.8775     68.151   -28.494
19.1521     68.297   -29.900
19.4306     68.444   -31.326
19.7133     68.591   -32.772
20.0000     68.737   -34.240
20.2909     68.884   -35.729
20.5860     69.031   -37.240
20.8855     69.156   -38.630
21.1893     69.281   -40.021
21.4975     69.406   -41.411
21.8102     69.531   -42.801
22.1274     69.656   -44.192
22.4492     69.781   -45.582
22.7758     69.906   -46.973
23.1071     70.031   -48.363
23.4432     70.157   -49.760
23.7841     70.342   -51.544
24.1301     70.527   -53.327
24.4811     70.712   -55.111
24.8372     70.897   -56.895
25.1984     71.082   -58.679
25.5649     71.267   -60.462
25.9368     71.452   -62.246
26.3141     71.637   -64.030
26.6968     71.843   -66.258
27.0851     72.053   -68.559
27.4791     72.263   -70.859
27.8788     72.472   -73.160
28.2843     72.682   -75.460
28.6957     72.891   -77.761
29.1131     73.101   -80.061
29.5365     73.314   -82.624
29.9661     73.528   -85.390
30.4020     73.743   -88.155
30.8442     73.958   -90.920
31.2929     74.172   -93.686
31.7480     74.387   -96.451
32.2098     74.601   -99.217
32.6783     74.813  -102.386
33.1536     75.024  -105.571
33.6359     75.235  -108.755
34.1251     75.446  -111.940
34.6215     75.657  -115.124
35.1250     75.868  -118.309
35.6359     76.071  -121.842
36.1543     76.273  -125.399
36.6802     76.475  -128.955
37.2137     76.677  -132.511
37.7550     76.879  -136.067
38.3041     77.077  -139.753
38.8613     77.269  -143.635
39.4265     77.460  -147.518
40.0000     77.651  -151.400
40.5818     77.842  -155.283
41.1721     78.031  -159.241
41.7710     78.212  -163.410
42.3785     78.392  -167.579
42.9949     78.573  -171.748
43.6203     78.754  -175.917
44.2548     78.931   179.789
44.8985     79.103   175.363
45.5515     79.276   170.938
46.2141     79.448   166.512
46.8863     79.621   162.082
47.5683     79.788   157.417
48.2602     79.956   152.752
48.9621     80.124   148.087
49.6743     80.291   143.421
50.3968     80.458   138.564
51.1299     80.624   133.663
51.8736     80.790   128.763
52.6281     80.956   123.862
53.3936     81.124   118.753
54.1702     81.292   113.609
54.9581     81.459   108.465
55.7575     81.627   103.292
56.5685     81.798    97.889
57.3914     81.969    92.487
58.2261     82.139    87.085
59.0730     82.312    81.527
59.9323     82.485    75.849
60.8040     82.659    70.170
61.6884     82.833    64.438
62.5857     83.008    58.471
63.4960     83.183    52.503
64.4196     83.358    46.536
65.3566     83.532    40.283
66.3073     83.707    34.019
67.2717     83.882    27.756
68.2502     84.054    21.232
69.2429     84.226    14.674
70.2501     84.398     8.116
71.2719     84.568     1.289
72.3086     84.736    -5.556
73.3603     84.905   -12.431
74.4274     85.070   -19.555
75.5099     85.236   -26.678
76.6083     85.400   -33.909
77.7226     85.564   -41.305
78.8531     85.727   -48.701
80.0000     85.890   -56.310
81.1636     86.053   -63.979
82.3442     86.216   -71.721
83.5419     86.380   -79.668
84.7570     86.544   -87.615
85.9899     86.710   -95.804
87.2406     86.876  -104.041
88.5096     87.044  -112.425
89.7970     87.213  -120.964
91.1031     87.382  -129.570
92.4282     87.552  -138.421
93.7726     87.723  -147.277
95.1366     87.893  -156.443
96.5204     88.064  -165.609
97.9243     88.233  -175.048
99.3486     88.402   175.477
100.794     88.564   165.916
102.260     88.726   156.335
103.747     88.891   146.372
105.256     89.056   136.319
106.787     89.222   126.028
108.340     89.387   115.699
109.916     89.553   105.106
111.515     89.719    94.470
113.137     89.886    83.593
114.783     90.054    72.626
116.452     90.223    61.468
118.146     90.393    50.147
119.865     90.563    38.701
121.608     90.734    27.000
123.377     90.905    15.199
125.171     91.074     3.153
126.992     91.242    -9.063
128.839     91.408   -21.413
130.713     91.570   -34.052
132.615     91.729   -46.823
134.543     91.885   -59.768
136.500     92.035   -72.971
138.486     92.183   -86.320
140.500     92.327   -99.842
142.544     92.466  -113.630
144.617     92.602  -127.577
146.721     92.736  -141.690
148.855     92.866  -156.048
151.020     92.995  -170.604
153.217     93.123   174.664
155.445     93.250   159.751
157.706     93.379   144.593
160.000     93.509   129.223
162.327     93.642   113.654
164.688     93.777    97.874
167.084     93.915    81.873
169.514     94.055    65.593
171.980     94.195    49.066
174.481     94.334    32.298
177.019     94.471    15.283
179.594     94.603    -1.983
182.206     94.731   -19.504
184.856     94.851   -37.279
187.545     94.962   -55.308
190.273     95.063   -73.599
193.041     95.154   -92.126
195.849     95.237  -110.875
198.697     95.316  -129.842
201.587     95.393  -149.030
204.520     95.475  -168.455
207.494     95.563   171.857
210.512     95.661   151.875
213.574     95.766   131.572
216.681     95.876   110.935
219.833     95.988    89.953
223.030     96.097    68.641
226.274     96.203    47.033
229.565     96.303    25.152
232.905     96.400     3.014
236.292     96.493   -19.378
239.729     96.585   -42.033
243.216     96.674   -64.974
246.754     96.760   -88.265
250.343     96.843  -111.893
253.984     96.924  -135.875
257.678     97.004  -160.227
261.426     97.088   174.968
265.229     97.181   149.729
269.087     97.282   124.048
273.001     97.392    97.883
276.972     97.505    71.286
281.000     97.618    44.368
285.088     97.724    17.180
289.234     97.822   -10.165
293.441     97.895   -37.599
297.709     97.920   -64.912
302.040     97.921   -92.627
306.433     97.971  -121.490
310.890     98.045  -144.350
315.412     98.154  -171.041
320.000     98.266   161.932
324.655     98.369   134.511
329.377     98.460   106.631
334.168     98.540    78.267
339.028     98.611    49.287
343.959     98.679    19.668
348.962     98.745   -10.630
354.038     98.807   -41.662
359.188     98.866   -73.382
364.412     98.925  -105.716
369.713     98.988  -138.627
375.090     99.062  -172.113
380.546     99.144   153.788
386.081     99.233   119.078
391.697     99.327    83.757
397.394     99.430    47.798
403.175     99.545    11.149
409.039     99.669   -26.223
414.989     99.796   -64.303
421.025     99.930  -103.070
427.149    100.071  -142.558
433.362    100.213   177.158
439.665    100.347   135.994
446.060    100.466    93.906
452.548    100.574    50.890
459.131    100.686     6.930
465.809    100.821   -37.992
472.584    100.996   -83.950
479.458    101.211  -130.897
486.432    101.452  -178.829
493.507    101.696   132.218
500.686    101.920    82.311
507.968    102.130    21.250
515.357    102.242   -20.219
522.853    102.359   -73.095
530.458    102.454  -127.004
538.174    102.528   177.987
546.002    102.578   121.923
553.943    102.598    64.817
562.001    102.587     6.644
570.175    102.547   -52.592
578.469    102.481  -112.883
586.883    102.388  -174.183
595.419    102.255   123.617
604.080    102.078    60.700
612.866    101.872    -2.815
621.780    101.658   -66.940
630.824    101.445  -131.701
640.000    101.242   162.918
649.309    101.049    96.898
658.753    100.866    30.144
668.335    100.699   -37.520
678.056    100.566  -106.277
687.919    100.486  -176.203
697.925    100.469   112.697
708.077    100.511    30.163
718.376    100.556   -32.630
728.825    100.599  -107.179
739.426    100.618   176.948
750.181    100.610    99.722
761.093    100.571    21.182
772.163    100.490   -58.539
783.394    100.346  -139.369
794.789    100.122   138.668
806.349     99.820    55.514
818.078     99.461   -28.817
829.977     99.065  -114.217
842.050     98.650   159.451
854.298     98.234    72.282
866.724     97.839   -15.660
879.330     97.485  -104.340
892.120     97.178   166.173
905.097     96.925    75.673
918.262     96.732   -21.755
931.618     96.622  -109.090
945.169     96.541   156.262
958.917     96.460    60.089
972.864     96.350   -37.722
987.015     96.199  -137.213
1001.37     96.008   121.681
1015.94     95.793    19.073
1030.71     95.573   -84.890
1045.71     95.373   169.896
1060.92     95.221    63.434
1076.35     95.143   -46.424
1092.00     95.116  -158.617
1107.89     95.097    95.207
1124.00     95.077   -18.655
1140.35     95.060  -137.376
1156.94     95.024   108.586
1173.77     94.940    -5.657
1190.84     94.772  -130.165
1208.16     94.511   105.671
1225.73     94.219   -17.998
1243.56     93.978  -140.591
1261.65     93.773    98.085
1280.00     93.619   -33.114
1298.62     93.697  -165.037
1317.51     94.028    62.535
1336.67     94.402   -61.889
1356.11     94.805   154.936
1375.84     95.113     9.315
1395.85     95.258  -126.586
1416.15     95.300    97.010
1436.75     95.281   -49.753
1457.65     95.161   153.578
1478.85     94.994    -2.855
1500.36     94.897  -148.502
1522.19     94.799    45.784
1544.33     94.659   -99.479
1566.79     94.498   103.871
1589.58     94.351   -63.780
1612.70     94.121   128.720
1636.16     93.704   -38.615
1659.95     93.122   154.421
1684.10     92.343   -22.004
1708.60     91.498   158.935
1733.45     90.854    -6.943
1758.66     90.462  -172.539
1784.24     90.281     6.162
1810.19     90.232  -175.945
1836.52     90.225     0.025
1863.24     90.200   174.795
1890.34     90.076   -10.599
1917.83     89.889   147.915
1945.73     89.820   -44.099
1974.03     89.860   124.515
2002.74     89.976   -82.366
2031.87     90.130    68.388
2061.43     90.197  -142.133
2091.41     89.905    -2.895
2121.83     89.108   128.545
2152.69     88.171   -84.563
2184.01     87.187    61.992
2215.77     86.267  -153.106
2248.00     85.364   -19.277
2280.70     84.106   102.058
2313.87     82.215  -142.071
2347.53     79.327   -16.767
2381.68     76.515   128.124
2416.32     75.862   -82.253
2451.46     77.531    57.884
2487.12     79.649   179.265
2523.30     81.968   -74.031
2560.00     84.511    35.492
2597.24     86.702   138.516
2635.01     88.083  -124.800
2673.34     88.969   -49.607
2712.23     89.715    24.747
2751.68     90.560   100.459
2791.70     91.420  -174.679
2832.31     92.039   -98.178
2873.50     92.451   -33.429
2915.30     92.816    17.267
2957.70     93.128    69.296
3000.72     93.235   128.230
3044.37     92.906   168.232
3088.65     91.952  -151.293
3133.58     90.552  -126.506
3179.16     89.171   -95.868
3225.40     87.863   -56.706
3272.31     86.079   -31.418
3319.91     83.703   -20.727
3368.20     81.096    -1.949
3417.19     78.247    29.562
3466.89     74.274    61.898
3517.32     70.839    88.164
3568.48     71.192   128.166
3620.39     74.692   162.445
3673.05     78.791   157.820
3726.47     81.295   127.660
3780.67     82.445   102.144
3835.67     83.147    85.072
3891.46     83.862    55.095
3948.06     84.782     4.308
4005.49     85.677   -43.708
4063.75     86.190   -98.453
4122.86     86.076  -158.774
4182.82     85.498   135.736
4243.66     84.996    72.604
4305.39     85.120     5.552
4368.01     85.754   -69.159
4431.55     86.573  -138.519
4496.01     87.772   130.610
4561.40     89.190    17.440
4627.75     90.425   -90.043
4695.06     91.507   150.654
4763.35     92.299    19.408
4832.64     92.560  -104.154
4902.93     92.351   113.585
4974.24     92.030   -45.789
5046.60     91.772   164.781
5120.00     91.353     2.881
5194.47     90.874  -159.012
5270.03     90.646    41.908
5346.68     90.543  -153.012
5424.45     90.360    20.227
5503.35     90.088  -176.454
5583.40     89.726   -36.453
5664.61     89.224   121.711
5747.01     88.199  -106.335
5830.60     86.904    26.587
5915.41     85.792   152.630
6001.45     84.841  -100.733
6088.74     83.854     9.293
6177.30     82.067   103.844
6267.15     80.682  -144.297
6358.31     81.220   -65.949
6450.80     81.700     9.761
6544.62     81.059    74.844
6639.82     81.628   137.541
6736.40     83.579  -176.969
6834.38     84.858  -154.408
6933.79     85.177  -126.228
7034.64     85.686  -121.356
7136.96     86.654  -123.373
7240.77     87.373  -145.472
7346.09     87.786  -174.919
7452.94     87.633   139.144
7561.35     86.720    85.162
7671.33     85.796    23.716
7782.91     84.300   -55.077
7896.12     82.004  -131.077
8010.97     79.947   125.465
8127.49     79.177    23.829
8245.71     78.578  -105.622
8365.65     75.801    89.538
8487.33     72.057  -124.705
8610.78     71.467     4.006
8736.03     73.391   155.547
8863.09     74.764   -59.538
8992.01     76.168    88.161
9122.80     78.356  -131.650
9255.50     80.519   -22.718
9390.12     81.761    82.214
9526.70     82.471  -172.728
9665.27     84.154   -75.294
9805.86     86.667     0.335
9948.49     88.364    49.182
10093.2     88.378    87.122
10240.0     87.947   121.067
10388.9     88.159   154.738
10540.1     88.432   160.822
10693.4     88.098   145.758
10848.9     87.641   121.358
11006.7     87.307    80.175
11166.8     86.495    14.414
11329.2     85.337   -61.455
11494.0     83.213  -148.806
11661.2     80.012   110.364
11830.8     76.778     2.540
12002.9     74.965  -105.229
12177.5     76.070   123.964
12354.6     77.740   -48.922
12534.3     77.182   107.700
12716.6     75.013  -121.089
12901.6     71.179   -28.815
13089.2     70.389     8.539
13279.6     74.875    38.051
13472.8     78.279    75.543
13668.8     77.327   110.885
13867.6     75.821   164.616
14069.3     77.979  -166.807
14273.9     80.958   178.170
14481.5     81.543   146.888
14692.2     81.362    88.694
14905.9     80.736    10.110
15122.7     79.800   -87.006
15342.7     78.721   155.061
15565.8     77.130    18.099
15792.2     75.976  -147.902
16021.9     75.478    23.164
16255.0     76.038   166.764
16491.4     77.046   -84.160
16731.3     77.411   -15.058
16974.7     77.657    26.222
17221.6     77.709    60.208
17472.1     77.747    66.806
17726.2     77.045    40.761
17984.0     74.785     3.676
18245.6     73.144   -41.839
18511.0     72.427  -124.032
18780.2     70.731   111.631
19053.4     65.717   -47.377
19330.5     59.543    65.668
19611.7     60.731   141.466
19897.0     65.774  -113.719
20186.4     67.302    -6.789
20480.0     67.441    88.149
20777.9     67.441   157.808
21080.1     67.441  -158.290
21386.7     67.441  -149.739
21697.8     67.441  -137.586
22013.4     67.118    49.812
22333.6     66.795  -122.789
22658.4     66.473    64.610
22988.0     66.150  -107.992
23322.4     65.828    79.407
23661.6     65.505   -93.194
24005.8     65.182    94.204
24355.0     64.860   -78.397
24709.2     64.537   109.001
25068.6     64.214   -63.600
25433.2     63.892   123.799
25803.2     63.569   -48.803
26178.5     63.247   138.596
26559.3     62.924   -34.005
26945.6     62.601   153.393
27337.5     62.279   -19.208
27735.2     61.956   168.190
28138.6     61.634    -4.411
28547.9     61.311  -177.012
28963.1     60.988    10.386
29384.4     60.666  -162.215
29811.8     60.343    25.184
30245.4     60.020  -147.418
30685.3     59.698    39.981
31131.7     59.375  -132.621
31584.5     59.053    54.778
32043.9     58.730  -117.823
32510.0     58.407    69.575
32982.8     58.085  -103.026
33462.6     57.762    84.373
33949.3     57.440   -88.229
34443.1     57.117    99.170
34944.1     56.794   -73.432
35452.4     56.472   113.967
35968.0     56.149   -58.634
36491.2     55.826   128.764
37022.0     55.504   -43.837
37560.5     55.181   143.561
38106.8     54.859   -29.040
38661.1     54.536   158.359
39223.4     54.213   -14.243
39793.9     53.891   173.156
