Freq[Hz]     dBSPL  Phase[Deg]
5.00000     48.338    51.160
5.07273     48.497    50.804
5.14651     48.655    50.443
5.22137     48.814    50.076
5.29732     48.972    49.704
5.37437     49.131    49.327
5.45254     49.289    48.944
5.53185     49.448    48.556
5.61231     49.607    48.162
5.69394     49.765    47.762
5.77676     49.924    47.356
5.86079     50.082    46.945
5.94604     50.241    46.527
6.03252     50.399    46.104
6.12027     50.558    45.674
6.20929     50.717    45.238
6.29961     50.875    44.796
6.39124     51.034    44.347
6.48420     51.192    43.892
6.57851     51.351    43.430
6.67420     51.509    42.961
6.77128     51.668    42.486
6.86977     51.826    42.004
6.96969     51.985    41.514
7.07107     52.144    41.018
7.17392     52.302    40.514
7.27827     52.461    40.003
7.38413     52.619    39.485
7.49154     52.778    38.959
7.60050     52.936    38.425
7.71105     53.095    37.884
7.82321     53.253    37.335
7.93701     53.412    36.777
8.05245     53.571    36.212
8.16958     53.729    35.638
8.28841     53.888    35.057
8.40896     54.046    34.466
8.53128     54.205    33.867
8.65537     54.363    33.260
8.78126     54.522    32.643
8.90899     54.680    32.018
9.03857     54.839    31.383
9.17004     54.998    30.739
9.30342     55.156    30.086
9.43874     55.315    29.423
9.57603     55.473    28.751
9.71532     55.632    28.069
9.85663     55.790    27.377
10.0000     55.949    26.675
10.1455     56.108    25.962
10.2930     56.266    25.240
10.4427     56.425    24.507
10.5946     56.583    23.763
10.7487     56.742    23.008
10.9051     56.900    22.242
11.0637     57.059    21.466
11.2246     57.217    20.678
11.3879     57.376    19.878
11.5535     57.535    19.067
11.7216     57.693    18.244
11.8921     57.852    17.409
12.0650     58.010    16.562
12.2405     58.169    15.703
12.4186     58.327    14.831
12.5992     58.486    13.946
12.7825     58.644    13.049
12.9684     58.803    12.138
13.1570     58.962    11.215
13.3484     59.120    10.277
13.5426     59.279     9.327
13.7395     59.437     8.362
13.9394     59.596     7.383
14.1421     59.754     6.390
14.3478     59.913     5.383
14.5565     60.071     4.361
14.7683     60.230     3.324
14.9831     60.389     2.272
15.2010     60.547     1.205
15.4221     60.706     0.122
15.6464     60.864    -0.976
15.8740     61.023    -2.091
16.1049     61.181    -3.222
16.3392     61.340    -4.369
16.5768     61.498    -5.533
16.8179     61.657    -6.713
17.0626     61.816    -7.911
17.3107     61.974    -9.127
17.5625     62.133   -10.360
17.8180     62.291   -11.611
18.0771     62.450   -12.880
18.3401     62.608   -14.167
18.6068     62.767   -15.474
18.8775     62.926   -16.799
19.1521     63.084   -18.144
19.4306     63.243   -19.508
19.7133     63.401   -20.892
20.0000     63.560   -22.296
20.2909     63.718   -23.721
20.5860     63.877   -25.166
20.8855     64.012   -26.490
21.1893     64.147   -27.813
21.4975     64.281   -29.137
21.8102     64.416   -30.461
22.1274     64.551   -31.784
22.4492     64.686   -33.108
22.7758     64.821   -34.432
23.1071     64.956   -35.755
23.4432     65.092   -37.085
23.7841     65.292   -38.803
24.1301     65.492   -40.521
24.4811     65.693   -42.239
24.8372     65.893   -43.957
25.1984     66.093   -45.676
25.5649     66.294   -47.394
25.9368     66.494   -49.112
26.3141     66.695   -50.830
26.6968     66.920   -53.000
27.0851     67.150   -55.244
27.4791     67.379   -57.488
27.8788     67.609   -59.732
28.2843     67.839   -61.976
28.6957     68.068   -64.220
29.1131     68.298   -66.465
29.5365     68.533   -68.978
29.9661     68.771   -71.700
30.4020     69.010   -74.421
30.8442     69.249   -77.143
31.2929     69.488   -79.865
31.7480     69.727   -82.587
32.2098     69.966   -85.308
32.6783     70.205   -88.452
33.1536     70.444   -91.612
33.6359     70.684   -94.772
34.1251     70.923   -97.933
34.6215     71.162  -101.093
35.1250     71.402  -104.253
35.6359     71.636  -107.787
36.1543     71.869  -111.346
36.6802     72.103  -114.906
37.2137     72.336  -118.465
37.7550     72.570  -122.024
38.3041     72.800  -125.726
38.8613     73.024  -129.644
39.4265     73.249  -133.563
40.0000     73.473  -137.482
40.5818     73.698  -141.400
41.1721     73.919  -145.404
41.7710     74.133  -149.645
42.3785     74.346  -153.887
42.9949     74.560  -158.128
43.6203     74.774  -162.369
44.2548     74.982  -166.751
44.8985     75.185  -171.282
45.5515     75.387  -175.814
46.2141     75.590   179.655
46.8863     75.792   175.120
47.5683     75.986   170.325
48.2602     76.179   165.530
48.9621     76.372   160.735
49.6743     76.565   155.940
50.3968     76.752   150.942
51.1299     76.937   145.900
51.8736     77.123   140.859
52.6281     77.309   135.817
53.3936     77.490   130.568
54.1702     77.671   125.286
54.9581     77.852   120.003
55.7575     78.032   114.693
56.5685     78.210   109.167
57.3914     78.388   103.641
58.2261     78.566    98.115
59.0730     78.744    92.446
59.9323     78.921    86.665
60.8040     79.099    80.884
61.6884     79.276    75.053
62.5857     79.452    69.001
63.4960     79.629    62.949
64.4196     79.806    56.898
65.3566     79.982    50.570
66.3073     80.158    44.231
67.2717     80.334    37.892
68.2502     80.508    31.288
69.2429     80.682    24.649
70.2501     80.855    18.010
71.2719     81.025    11.082
72.3086     81.195     4.134
73.3603     81.364    -2.847
74.4274     81.528   -10.105
75.5099     81.693   -17.363
76.6083     81.854   -24.742
77.7226     82.011   -32.307
78.8531     82.169   -39.873
80.0000     82.320   -47.673
81.1636     82.470   -55.539
82.3442     82.617   -63.482
83.5419     82.759   -71.639
84.7570     82.901   -79.796
85.9899     83.037   -88.187
87.2406     83.172   -96.625
88.5096     83.304  -105.195
89.7970     83.433  -113.903
91.1031     83.561  -122.668
92.4282     83.686  -131.639
93.7726     83.811  -140.614
95.1366     83.933  -149.842
96.5204     84.055  -159.070
97.9243     84.177  -168.521
99.3486     84.299  -178.002
100.794     84.419   172.466
102.260     84.540   162.921
103.747     84.664   152.999
105.256     84.790   142.989
106.787     84.917   132.742
108.340     85.045   122.456
109.916     85.174   111.895
111.515     85.302   101.290
113.137     85.429    90.427
114.783     85.556    79.472
116.452     85.680    68.315
118.146     85.801    56.992
119.865     85.920    45.541
121.608     86.032    33.843
123.377     86.142    22.050
125.171     86.244    10.028
126.992     86.342    -2.149
128.839     86.435   -14.447
130.713     86.520   -27.006
132.615     86.601   -39.683
134.543     86.678   -52.518
136.500     86.747   -65.589
138.486     86.814   -78.797
140.500     86.877   -92.164
142.544     86.935  -105.782
144.617     86.990  -119.552
146.721     87.043  -133.480
148.855     87.094  -147.642
151.020     87.143  -161.996
153.217     87.192  -176.520
155.445     87.240   168.780
157.706     87.289   153.840
160.000     87.339   138.693
162.327     87.390   123.351
164.688     87.441   107.804
167.084     87.493    92.042
169.514     87.542    76.008
171.980     87.588    59.735
174.481     87.629    43.227
177.019     87.664    26.477
179.594     87.689     9.482
182.206     87.704    -7.765
184.856     87.706   -25.264
187.545     87.694   -43.016
190.273     87.667   -61.035
193.041     87.624   -79.297
195.849     87.567   -97.789
198.697     87.498  -116.504
201.587     87.420  -135.435
204.520     87.338  -154.578
207.494     87.254  -173.939
210.512     87.172   166.475
213.574     87.095   146.649
216.681     87.023   126.573
219.833     86.953   106.232
223.030     86.883    85.621
226.274     86.809    64.756
229.565     86.726    43.646
232.905     86.633    22.300
236.292     86.524     0.720
239.729     86.400   -21.093
243.216     86.258   -43.148
246.754     86.098   -65.490
250.343     85.927   -88.111
253.984     85.748  -111.037
257.678     85.568  -134.296
261.426     85.395  -157.963
265.229     85.236   177.995
269.087     85.097   153.602
273.001     84.985   128.862
276.972     84.898   103.840
281.000     84.828    78.638
285.088     84.758    53.343
289.234     84.666    28.086
293.441     84.512     3.015
297.709     84.244   -21.385
302.040     83.911   -45.117
306.433     83.689   -68.736
310.890     83.597   -87.272
315.412     83.547  -108.907
320.000     83.520  -130.871
324.655     83.503  -153.294
329.377     83.487  -176.430
334.168     83.457   159.516
339.028     83.379   134.166
343.959     83.219   107.493
348.962     82.949    79.546
354.038     82.542    50.417
359.188     81.992    20.454
364.412     81.310    -9.838
369.713     80.529   -39.794
375.090     79.743   -68.689
380.546     79.130   -96.212
386.081     78.854  -123.232
391.697     78.934  -151.386
397.394     79.224   177.872
403.175     79.521   143.970
409.039     79.702   107.097
414.989     79.764    67.728
421.025     79.787    26.458
427.149     79.886   -15.963
433.362     80.151   -58.774
439.665     80.598  -101.515
446.060     81.152  -144.204
452.548     81.692   172.792
459.131     82.126   128.994
465.809     82.426    83.913
472.584     82.627    37.038
479.458     82.824   -11.675
486.432     83.111   -61.988
493.507     83.535  -113.423
500.686     84.038  -165.447
507.968     84.574   131.481
515.357     84.821    88.663
522.853     85.019    33.681
530.458     85.135   -23.139
538.174     85.252   -81.904
546.002     85.434  -141.981
553.943     85.678   157.344
562.001     85.925    96.401
570.175     86.113    34.863
578.469     86.236   -27.907
586.883     86.322   -92.243
595.419     86.392  -157.670
604.080     86.472   136.951
612.866     86.586    72.105
621.780     86.707     7.184
630.824     86.782   -58.543
640.000     86.830  -125.467
649.309     86.894   166.381
658.753     86.985    97.197
668.335     87.082    27.102
678.056     87.159   -43.952
687.919     87.211  -115.996
697.925     87.227   171.038
708.077     87.137    86.612
718.376     86.963    22.216
728.825     86.692   -54.758
739.426     86.452  -133.624
750.181     86.338   146.406
761.093     86.303    66.488
772.163     86.169   -12.927
783.394     85.801   -92.472
794.789     85.215  -173.098
806.349     84.555   104.891
818.078     83.950    22.087
829.977     83.433   -60.778
842.050     83.008  -143.630
854.298     82.756   133.113
866.724     82.783    49.176
879.330     83.092   -35.598
892.120     83.556  -121.821
905.097     84.055   149.453
918.262     84.605    51.565
931.618     85.127   -37.759
945.169     85.695  -135.693
958.917     86.230   123.929
972.864     86.748    21.293
987.015     87.260   -82.849
1001.37     87.625   172.234
1015.94     87.656    65.860
1030.71     87.415   -43.537
1045.71     87.183  -155.794
1060.92     86.985    91.293
1076.35     86.420   -23.825
1092.00     85.356  -141.915
1107.89     84.042   105.311
1124.00     82.445   -15.337
1140.35     80.683  -139.742
1156.94     79.135   105.095
1173.77     77.798     0.208
1190.84     76.756  -101.236
1208.16     76.745   160.678
1225.73     77.772    53.548
1243.56     78.956   -64.956
1261.65     79.829   167.637
1280.00     80.958    23.832
1298.62     82.337  -117.881
1317.51     82.948   104.941
1336.67     82.638   -24.174
1356.11     81.885  -174.529
1375.84     81.120    32.546
1395.85     80.446  -107.878
1416.15     79.675   114.834
1436.75     78.692   -29.221
1457.65     77.623  -177.981
1478.85     76.473    38.007
1500.36     75.690   -97.961
1522.19     75.991   104.175
1544.33     76.393   -33.621
1566.79     76.336   173.213
1589.58     76.842     4.079
1612.70     77.816  -158.672
1636.16     77.281    45.458
1659.95     75.657  -115.906
1684.10     75.119    70.411
1708.60     75.781   -99.643
1733.45     76.546   102.134
1758.66     77.542   -64.269
1784.24     78.981   106.611
1810.19     80.417   -85.293
1836.52     81.460    82.660
1863.24     81.762  -109.506
1890.34     81.545    56.607
1917.83     81.191  -151.939
1945.73     80.173    15.154
1974.03     78.367  -174.484
2002.74     77.073   -16.523
2031.87     77.238   146.190
2061.43     77.673   -49.839
2091.41     78.016    95.323
2121.83     78.906  -131.603
2152.69     79.492    18.238
2184.01     79.720   165.129
2215.77     80.087   -50.364
2248.00     80.359    84.137
2280.70     80.581  -154.575
2313.87     81.019   -38.780
2347.53     81.329    82.326
2381.68     81.291  -148.219
2416.32     81.083   -25.702
2451.46     80.853    84.272
2487.12     80.846  -178.032
2523.30     80.813   -85.711
2560.00     80.215    20.437
2597.24     79.343   125.809
2635.01     78.787  -128.672
2673.34     78.092   -41.107
2712.23     77.321    40.292
2751.68     77.137   121.277
2791.70     77.301  -145.207
2832.31     77.969   -59.766
2873.50     78.912    11.703
2915.30     79.655    67.658
2957.70     79.828   125.132
3000.72     79.724  -166.014
3044.37     79.714  -113.994
3088.65     79.992   -65.664
3133.58     80.395   -36.221
3179.16     80.271    -3.652
3225.40     79.879    36.646
3272.31     79.522    63.901
3319.91     78.841    77.415
3368.20     77.825    96.473
3417.19     76.785   126.677
3466.89     76.174   151.666
3517.32     76.421   149.145
3568.48     76.812   144.288
3620.39     76.843   148.210
3673.05     76.226   138.064
3726.47     74.697   115.611
3780.67     73.048   100.783
3835.67     72.650    92.358
3891.46     73.264    68.776
3948.06     74.096    23.387
4005.49     74.510   -19.509
4063.75     74.438   -68.417
4122.86     74.415  -122.126
4182.82     74.603  -178.315
4243.66     75.276   123.102
4305.39     76.321    52.637
4368.01     77.108   -30.684
4431.55     77.231  -111.128
4496.01     76.812   151.601
4561.40     75.958    40.963
4627.75     75.455   -58.307
4695.06     75.578  -167.215
4763.35     75.844    71.641
4832.64     76.066   -41.095
4902.93     76.451  -172.063
4974.24     76.706    37.054
5046.60     76.845  -107.761
5120.00     77.180    94.107
5194.47     77.428   -64.767
5270.03     77.570   139.411
5346.68     77.854   -48.764
5424.45     78.340   128.801
5503.35     78.775   -67.456
5583.40     78.768    74.661
5664.61     78.498  -121.744
5747.01     78.340    16.676
5830.60     78.222   153.907
5915.41     78.105   -77.255
6001.45     78.430    30.559
6088.74     79.040   140.465
6177.30     79.256  -128.080
6267.15     79.080   -28.991
6358.31     78.834    37.397
6450.80     78.695   113.868
6544.62     78.912   176.421
6639.82     79.434  -132.408
6736.40     79.750   -92.585
6834.38     79.744   -65.795
6933.79     79.923   -32.953
7034.64     80.487   -27.429
7136.96     81.040   -29.614
7240.77     81.095   -49.219
7346.09     80.888   -73.905
7452.94     80.495  -114.588
7561.35     79.078  -165.406
7671.33     76.985   141.314
7782.91     75.164    78.308
7896.12     73.499    15.129
8010.97     71.977   -77.409
8127.49     71.292  -160.427
8245.71     71.563   102.074
8365.65     72.210   -16.382
8487.33     72.427  -159.686
8610.78     71.903    50.771
8736.03     70.978   -92.711
8863.09     71.158   100.215
8992.01     72.887   -81.700
9122.80     74.122    76.484
9255.50     73.342  -157.699
9390.12     70.635   -28.106
9526.70     68.437   105.797
9665.27     67.411  -135.324
9805.86     65.448   -33.120
9948.49     64.613    65.911
10093.2     67.403   149.444
10240.0     70.706  -163.575
10388.9     71.664  -129.813
10540.1     71.508  -114.511
10693.4     71.472  -117.519
10848.9     71.025  -130.056
11006.7     71.413  -154.005
11166.8     72.469   149.195
11329.2     71.975    76.147
11494.0     70.686    -0.960
11661.2     69.546   -97.809
11830.8     67.751   145.805
12002.9     64.105    24.110
12177.5     60.977   -96.231
12354.6     60.889   130.029
12534.3     62.678   -30.486
12716.6     66.154   140.253
12901.6     69.829   -75.098
13089.2     72.689    40.669
13279.6     74.782   128.935
13472.8     75.069  -164.969
13668.8     74.751  -110.884
13867.6     75.543   -65.609
14069.3     76.696   -63.999
14273.9     75.043   -94.937
14481.5     69.825  -120.642
14692.2     65.053  -148.926
14905.9     63.677   169.995
15122.7     64.288    97.008
15342.7     64.606    -7.578
15565.8     64.023  -136.031
15792.2     62.975    61.721
16021.9     61.140  -128.271
16255.0     57.705     5.255
16491.4     55.115    89.994
16731.3     56.474   135.685
16974.7     59.540  -177.590
17221.6     61.999  -119.503
17472.1     64.027   -89.879
17726.2     65.201   -94.557
17984.0     65.017  -117.950
18245.6     64.096  -153.953
18511.0     63.690   141.130
18780.2     63.086    39.123
19053.4     61.118   -77.695
19330.5     58.931   139.751
19611.7     56.993   -30.378
19897.0     54.492   140.519
20186.4     52.804   -79.680
20480.0     52.561    24.073
20777.9     52.561    95.965
21080.1     52.561   142.128
21386.7     52.561   152.978
21697.8     52.562   167.423
22013.4     52.183    13.397
22333.6     51.804  -140.630
22658.4     51.424    65.343
22988.0     51.045   -88.684
23322.4     50.666   117.289
23661.6     50.286   -36.738
24005.8     49.907   169.235
24355.0     49.527    15.209
24709.2     49.148  -138.818
25068.6     48.769    67.155
25433.2     48.389   -86.872
25803.2     48.010   119.101
26178.5     47.631   -34.926
26559.3     47.251   171.047
26945.6     46.872    17.020
27337.5     46.493  -137.006
27735.2     46.113    68.967
28138.6     45.734   -85.060
28547.9     45.354   120.913
28963.1     44.975   -33.114
29384.4     44.596   172.859
29811.8     44.216    18.832
30245.4     43.837  -135.195
30685.3     43.458    70.779
31131.7     43.078   -83.248
31584.5     42.699   122.725
32043.9     42.320   -31.302
32510.0     41.940   174.671
32982.8     41.561    20.644
33462.6     41.181  -133.383
33949.3     40.802    72.590
34443.1     40.423   -81.436
34944.1     40.043   124.537
35452.4     39.664   -29.490
35968.0     39.285   176.483
36491.2     38.905    22.456
37022.0     38.526  -131.571
37560.5     38.147    74.402
38106.8     37.767   -79.625
38661.1     37.388   126.349
39223.4     37.008   -27.678
39793.9     36.629   178.295
