"Vertical Reflections"					
"Floor Reflection"		"Ceiling Reflection"		"Total Vertical Reflection"	
"Frequency [Hz]"	"Sound Pessure Level [dB]  / [2.83V 1m] "	"Frequency [Hz]"	"Sound Pessure Level [dB]  / [2.83V 1m] "	"Frequency [Hz]"	"Sound Pessure Level [dB]  / [2.83V 1m] "
20.5078	38.7418	20.5078	37.5139	20.5078	38.1711
21.9727	45.6151	21.9727	43.4657	21.9727	44.672
23.4375	47.1627	23.4375	45.0391	23.4375	46.2294
24.9023	48.0435	24.9023	45.8127	24.9023	47.0698
26.3672	50.5637	26.3672	48.5549	26.3672	49.6744
27.832	52.9642	27.832	50.4805	27.832	51.8975
29.2969	53.7591	29.2969	51.7932	29.2969	52.8864
30.7617	54.5167	30.7617	53.0967	30.7617	53.8645
32.2266	57.2701	32.2266	56.0519	32.2266	56.7036
33.6914	58.6559	33.6914	57.6172	33.6914	58.1675
35.1562	60.4103	35.1562	59.3659	35.1562	59.9194
36.6211	62.1291	36.6211	61.2887	36.6211	61.7292
38.0859	63.6424	38.0859	62.9245	38.0859	63.2983
39.5508	65.1749	39.5508	64.6888	39.5508	64.9387
41.0156	67.1192	41.0156	66.7977	41.0156	66.9614
42.4805	68.6526	42.4805	68.2498	42.4805	68.4559
43.9453	70.0898	43.9453	69.8057	43.9453	69.9501
45.4102	71.8638	45.4102	71.5873	45.4102	71.7278
46.875	73.5595	46.875	73.2878	46.875	73.4258
48.3398	75.1283	48.3398	74.859	48.3398	74.9958
51.2695	78.0965	51.2695	77.908	51.2695	78.0033
52.7344	79.4364	52.7344	79.2584	52.7344	79.3483
54.1992	80.6193	54.1992	80.4573	54.1992	80.5391
55.6641	81.5539	55.6641	81.3709	55.6641	81.4634
58.5938	82.8438	58.5938	82.6801	58.5938	82.7627
60.0586	83.1657	60.0586	83.0056	60.0586	83.0864
62.9883	83.3746	62.9883	83.2173	62.9883	83.2967
64.4531	83.3341	64.4531	83.1776	64.4531	83.2565
67.3828	83.1779	67.3828	83.0353	67.3828	83.1072
68.8477	83.1259	68.8477	82.9865	68.8477	83.0567
71.7773	83.0723	71.7773	82.9377	71.7773	83.0055
74.707	83.0654	74.707	82.9497	74.707	83.0079
77.6367	83.0418	77.6367	82.9312	77.6367	82.9868
79.1016	83.0462	79.1016	82.9392	79.1016	82.993
82.0312	83.0903	82.0312	82.9936	82.0312	83.0422
84.9609	83.1749	84.9609	83.0573	84.9609	83.1165
87.8906	83.1882	87.8906	83.1106	87.8906	83.1496
90.8203	83.2747	90.8203	83.2299	90.8203	83.2523
95.2148	83.4354	95.2148	83.4509	95.2148	83.4432
98.1445	83.565	98.1445	83.6139	98.1445	83.5895
101.074	83.7478	101.074	83.8224	101.074	83.7853
105.469	83.7869	105.469	83.9746	105.469	83.8818
108.398	84.1271	108.398	84.2328	108.398	84.1803
112.793	84.4943	112.793	84.4976	112.793	84.496
117.188	84.6064	117.188	84.6176	117.188	84.612
120.117	84.7654	120.117	84.7494	120.117	84.7574
124.512	85.0646	124.512	84.9753	124.512	85.0201
128.906	85.2006	128.906	85.0901	128.906	85.1457
133.301	85.1526	133.301	85.0649	133.301	85.109
139.16	85.1168	139.16	85.0483	139.16	85.0827
143.555	85.2958	143.555	85.1151	143.555	85.2064
147.949	85.499	147.949	85.2433	147.949	85.373
153.809	85.5312	153.809	85.2035	153.809	85.3704
159.668	85.4874	159.668	85.0848	159.668	85.2908
165.527	85.6315	165.527	85.2026	165.527	85.4223
171.387	85.5108	171.387	85.0581	171.387	85.2904
177.246	85.3816	177.246	84.971	177.246	85.1811
183.105	85.6132	183.105	84.89	183.105	85.2666
188.965	85.5204	188.965	84.9921	188.965	85.2643
196.289	85.5285	196.289	84.9864	196.289	85.2659
203.613	85.5091	203.613	84.8543	203.613	85.194
210.938	85.4996	210.938	84.711	210.938	85.1232
218.262	85.2037	218.262	84.4973	218.262	84.8648
225.586	85.0735	225.586	84.2356	225.586	84.6747
232.91	85.2279	232.91	84.3087	232.91	84.7926
241.699	85.2333	241.699	83.9637	241.699	84.6447
250.488	85.552	250.488	83.7513	250.488	84.7443
259.277	85.1047	259.277	83.6144	259.277	84.4231
268.066	85.1015	268.066	83.1551	268.066	84.2365
276.855	84.8802	276.855	83.3651	276.855	84.1884
287.109	84.2308	287.109	83.2687	287.109	83.7763
297.363	84.2819	297.363	83.5561	297.363	83.9342
307.617	84.1476	307.617	83.367	307.617	83.7748
319.336	84.1564	319.336	82.6069	319.336	83.4504
329.59	84.1595	329.59	82.2703	329.59	83.3168
341.309	84.9367	341.309	82.9489	341.309	84.0555
353.027	84.8253	353.027	82.8566	353.027	83.9516
366.211	84.8687	366.211	82.8896	366.211	83.9909
379.395	84.8897	379.395	83.3404	379.395	84.1838
392.578	84.2837	392.578	82.6209	392.578	83.5314
405.762	84.2178	405.762	82.7052	405.762	83.5271
420.41	84.1272	420.41	82.7635	420.41	83.4986
435.059	83.9431	435.059	82.1619	435.059	83.1432
451.172	84.6174	451.172	82.2037	451.172	83.5761
465.82	83.9838	465.82	82.0757	465.82	83.1337
483.398	83.5213	483.398	82.2027	483.398	82.9119
499.512	84.1765	499.512	82.0228	499.512	83.2318
517.09	83.8369	517.09	81.9533	517.09	82.9964
536.133	84.1939	536.133	80.2952	536.133	82.6681
555.176	84.3894	555.176	80.546	555.176	82.8797
574.219	84.6804	574.219	81.1877	574.219	83.2761
594.727	84.4809	594.727	81.5189	594.727	83.2477
615.234	85.2639	615.234	81.9286	615.234	83.9088
637.207	86.2723	637.207	81.6985	637.207	84.5616
659.18	85.3303	659.18	81.7458	659.18	83.8979
682.617	85.6145	682.617	81.2436	682.617	83.9572
707.52	85.219	707.52	81.4092	707.52	83.7191
732.422	85.014	732.422	82.4486	732.422	83.918
757.324	86.4717	757.324	83.687	757.324	85.2988
785.156	86.0372	785.156	84.2617	785.156	85.2396
811.523	86.221	811.523	83.8494	811.523	85.1951
840.82	85.8338	840.82	84.6073	840.82	85.2637
870.117	85.026	870.117	83.2542	870.117	84.2298
900.879	85.6371	900.879	83.4432	900.879	84.6773
933.105	84.9782	933.105	83.213	933.105	84.1846
965.332	84.8416	965.332	82.5439	965.332	83.843
1,000.49	84.6007	1,000.49	82.5396	1,000.49	83.6913
1,035.64	83.9009	1,035.64	82.1517	1,035.64	83.1138
1,072.27	83.3494	1,072.27	81.2938	1,072.27	82.4421
1,108.89	83.2931	1,108.89	82.3072	1,108.89	82.8281
1,148.44	82.6349	1,148.44	81.838	1,148.44	82.2547
1,189.45	82.2543	1,189.45	79.4027	1,189.45	81.0584
1,230.47	82.6194	1,230.47	79.8143	1,230.47	81.4395
1,274.41	82.7089	1,274.41	79.3553	1,274.41	81.3481
1,319.82	82.7919	1,319.82	79.2769	1,319.82	81.3807
1,366.7	82.8258	1,366.7	79.0042	1,366.7	81.3225
1,413.57	83.0224	1,413.57	79.1011	1,413.57	81.49
1,463.38	83.017	1,463.38	79.8656	1,463.38	81.7211
1,516.11	81.6266	1,516.11	77.6585	1,516.11	80.0808
1,568.85	80.3822	1,568.85	77.1606	1,568.85	79.0635
1,624.51	79.5067	1,624.51	77.1732	1,624.51	78.4948
1,681.64	80.8918	1,681.64	76.4092	1,681.64	79.2048
1,741.7	80.2448	1,741.7	76.3039	1,741.7	78.7068
1,803.22	80.9086	1,803.22	78.4487	1,803.22	79.8505
1,866.21	79.3545	1,866.21	76.2837	1,866.21	78.085
1,932.13	78.6236	1,932.13	74.6662	1,932.13	77.0809
1,999.51	77.3091	1,999.51	78.4272	1,999.51	77.904
2,069.82	79.2136	2,069.82	76.2252	2,069.82	77.9715
2,143.07	78.1004	2,143.07	74.0523	2,143.07	76.5318
2,219.24	78.9711	2,219.24	74.6595	2,219.24	77.3297
2,296.88	76.3345	2,296.88	72.7862	2,296.88	74.9131
2,378.91	78.8359	2,378.91	77.7977	2,378.91	78.3477
2,462.4	78.7075	2,462.4	71.7737	2,462.4	76.4984
2,548.83	77.742	2,548.83	73.3847	2,548.83	76.0883
2,639.65	77.3181	2,639.65	74.9764	2,639.65	76.3032
2,731.93	77.6871	2,731.93	76.4737	2,731.93	77.1227
2,828.61	78.3677	2,828.61	77.4083	2,828.61	77.9144
2,928.22	78.8621	2,928.22	78.0793	2,928.22	78.4884
3,030.76	78.288	3,030.76	78.341	3,030.76	78.3146
3,137.7	78.2715	3,137.7	79.21	3,137.7	78.7661
3,249.02	79.6951	3,249.02	79.9927	3,249.02	79.8465
3,363.28	80.038	3,363.28	79.9846	3,363.28	80.0114
3,481.93	80.7429	3,481.93	79.8626	3,481.93	80.325
3,604.98	80.9508	3,604.98	80.0195	3,604.98	80.5101
3,732.42	80.3028	3,732.42	80.2382	3,732.42	80.2706
3,864.26	81.6446	3,864.26	80.9804	3,864.26	81.3252
4,000.49	81.9605	4,000.49	80.7459	4,000.49	81.3955
4,141.11	83.1128	4,141.11	80.6284	4,141.11	82.0458
4,287.6	83.0223	4,287.6	80.6443	4,287.6	81.994
4,438.48	82.618	4,438.48	79.481	4,438.48	81.3268
4,595.21	83.338	4,595.21	80.2647	4,595.21	82.0677
4,756.35	83.8357	4,756.35	80.2955	4,756.35	82.4168
4,924.8	83.9078	4,924.8	79.9173	4,924.8	82.3556
5,097.66	84.3808	5,097.66	79.9258	5,097.66	82.7011
5,277.83	84.1208	5,277.83	80.0696	5,277.83	82.5514
5,463.87	84.314	5,463.87	79.8655	5,463.87	82.6361
5,657.23	85.5374	5,657.23	80.5606	5,657.23	83.726
5,856.45	86.0315	5,856.45	80.4772	5,856.45	84.0876
6,062.99	85.3271	6,062.99	80.7378	6,062.99	83.6124
6,276.86	84.4464	6,276.86	81.5212	6,276.86	83.2256
6,498.05	83.3749	6,498.05	81.623	6,498.05	82.5867
6,726.56	83.1461	6,726.56	80.6687	6,726.56	82.0817
6,963.87	84.0567	6,963.87	80.2883	6,963.87	82.569
7,209.96	84.3808	7,209.96	80.0194	7,209.96	82.726
7,464.84	84.2483	7,464.84	80.2337	7,464.84	82.6893
7,727.05	83.0655	7,727.05	80.1199	7,727.05	81.8377
7,999.51	82.6557	7,999.51	80.0208	7,999.51	81.5351
8,282.23	83.3244	8,282.23	79.1857	8,282.23	81.7305
8,573.73	84.1069	8,573.73	78.9762	8,573.73	82.2589
8,876.95	83.7303	8,876.95	79.1711	8,876.95	82.0234
9,188.96	83.6649	9,188.96	79.1763	9,188.96	81.9764
9,514.16	84.0585	9,514.16	79.0149	9,514.16	82.231
9,849.61	84.1241	9,849.61	79.066	9,849.61	82.2932
10,196.8	84.3196	10,196.8	79.3256	10,196.8	82.504
10,555.7	84.0025	10,555.7	79.7238	10,555.7	82.37
10,927.7	84.5901	10,927.7	80.1475	10,927.7	82.9137
11,313	85.4033	11,313	80.3969	11,313	83.5848
11,712.9	85.4889	11,712.9	80.7939	11,712.9	83.7472
12,126	85.3221	12,126	81.5028	12,126	83.8194
12,553.7	86.2838	12,553.7	82.1239	12,553.7	84.684
12,996.1	87.3321	12,996.1	82.7681	12,996.1	85.6239
13,454.6	87.1419	13,454.6	83.3008	13,454.6	85.6328
13,929.2	88.0944	13,929.2	83.5847	13,929.2	86.4003
14,419.9	89.0417	14,419.9	83.7626	14,419.9	87.1593
14,928.2	89.5258	14,928.2	84.2871	14,928.2	87.6527
15,455.6	89.7856	15,455.6	84.3835	15,455.6	87.8754
16,000.5	88.3619	16,000.5	83.5427	16,000.5	86.589
16,564.5	84.7587	16,564.5	78.9852	16,564.5	82.7681
17,148.9	83.1791	17,148.9	77.387	17,148.9	81.1846
17,752.4	81.037	17,752.4	75.4539	17,752.4	79.0869
18,379.4	79.9304	18,379.4	74.5961	18,379.4	78.0354
19,026.9	79.3457	19,026.9	73.994	19,026.9	77.4468
19,697.8	77.3192	19,697.8	71.1251	19,697.8	75.2438
19,999.5	74.7844	19,999.5	69.2202	19,999.5	72.8384
