"Vertical Reflections"					
"Floor Reflection"		"Ceiling Reflection"		"Total Vertical Reflection"	
"Frequency [Hz]"	"Sound Pessure Level [dB]  / [2.83V 1m] "	"Frequency [Hz]"	"Sound Pessure Level [dB]  / [2.83V 1m] "	"Frequency [Hz]"	"Sound Pessure Level [dB]  / [2.83V 1m] "
20.5078	62.0295	20.5078	61.7911	20.5078	61.9119
21.9727	65.3213	21.9727	65.2736	21.9727	65.2975
23.4375	67.4098	23.4375	67.4075	23.4375	67.4087
24.9023	69.685	24.9023	69.607	24.9023	69.6462
26.3672	71.676	26.3672	71.5105	26.3672	71.594
27.832	73.5704	27.832	73.3435	27.832	73.4584
29.2969	74.9133	29.2969	74.6064	29.2969	74.7626
30.7617	76.0958	30.7617	75.7757	30.7617	75.9387
32.2266	77.0548	32.2266	76.618	32.2266	76.8419
33.6914	77.8073	33.6914	77.3662	33.6914	77.5924
35.1562	78.1562	35.1562	77.7264	35.1562	77.9466
36.6211	78.5668	36.6211	78.089	36.6211	78.3345
38.0859	78.8281	38.0859	78.2828	38.0859	78.564
39.5508	79.1413	39.5508	78.5611	39.5508	78.8609
41.0156	79.3529	41.0156	78.7682	41.0156	79.0704
42.4805	79.4191	42.4805	78.8483	42.4805	79.1431
43.9453	79.4816	43.9453	78.8528	43.9453	79.1786
45.4102	79.7296	45.4102	79.0992	45.4102	79.4258
46.875	79.8135	46.875	79.1916	46.875	79.5137
48.3398	79.8471	48.3398	79.1756	48.3398	79.5243
51.2695	79.9799	51.2695	79.2889	51.2695	79.6481
52.7344	80.1193	52.7344	79.4501	52.7344	79.7976
54.1992	80.4462	54.1992	79.7725	54.1992	80.1224
55.6641	80.5701	55.6641	79.8996	55.6641	80.2478
58.5938	80.6844	58.5938	79.9529	58.5938	80.334
60.0586	80.8011	60.0586	80.0482	60.0586	80.441
62.9883	81.0916	62.9883	80.3296	62.9883	80.7273
64.4531	81.1453	64.4531	80.3618	64.4531	80.7712
67.3828	81.2122	67.3828	80.4404	67.3828	80.8434
68.8477	81.3252	68.8477	80.5477	68.8477	80.9538
71.7773	81.6054	71.7773	80.8008	71.7773	81.2217
74.707	81.8004	74.707	80.9882	74.707	81.4132
77.6367	81.9818	77.6367	81.1601	77.6367	81.5903
79.1016	82.0869	79.1016	81.2557	79.1016	81.6912
82.0312	82.1174	82.0312	81.2679	82.0312	81.7134
84.9609	82.2379	84.9609	81.4035	84.9609	81.8407
87.8906	82.2789	87.8906	81.5291	87.8906	81.9202
90.8203	82.5001	90.8203	81.6888	90.8203	82.1133
95.2148	82.6525	95.2148	81.7618	95.2148	82.23
98.1445	82.8847	98.1445	81.9874	98.1445	82.4592
101.074	82.8605	101.074	81.8879	101.074	82.4014
105.469	83.1128	105.469	82.135	105.469	82.6514
108.398	83.3551	108.398	82.4416	108.398	82.9223
112.793	83.5136	112.793	82.5162	112.793	83.0435
117.188	83.4598	117.188	82.4323	117.188	82.9763
120.117	83.6435	120.117	82.5607	120.117	83.1358
124.512	83.5208	124.512	82.469	124.512	83.0266
128.906	83.3995	128.906	82.3111	128.906	82.8893
133.301	83.4898	133.301	82.2862	133.301	82.9296
139.16	83.7366	139.16	82.4352	139.16	83.1345
143.555	83.7423	143.555	82.4644	143.555	83.1502
147.949	83.6658	147.949	82.3328	147.949	83.0502
153.809	83.628	153.809	82.1792	153.809	82.9637
159.668	83.8919	159.668	82.3608	159.668	83.1935
165.527	83.9118	165.527	82.6558	165.527	83.3291
171.387	83.9577	171.387	82.6045	171.387	83.3336
177.246	84.0712	177.246	82.5854	177.246	83.3915
183.105	83.938	183.105	82.6399	183.105	83.3373
188.965	83.9665	188.965	82.5982	188.965	83.336
196.289	84.2753	196.289	82.7534	196.289	83.5807
203.613	84.2663	203.613	82.882	203.613	83.6291
210.938	84.1529	210.938	82.8045	210.938	83.5308
218.262	84.1615	218.262	82.7398	218.262	83.5085
225.586	84.4648	225.586	82.9631	225.586	83.7785
232.91	84.4157	232.91	82.8583	232.91	83.7064
241.699	84.3825	241.699	82.5525	241.699	83.5632
250.488	84.813	250.488	82.265	250.488	83.7233
259.277	84.6691	259.277	82.668	259.277	83.7828
268.066	84.1876	268.066	82.3792	268.066	83.3769
276.855	84.0866	276.855	82.5094	276.855	83.3692
287.109	83.7674	287.109	82.4955	287.109	83.1778
297.363	84.2025	297.363	82.8582	297.363	83.5822
307.617	84.0052	307.617	82.7067	307.617	83.4043
319.336	83.7117	319.336	82.4859	319.336	83.1419
329.59	83.0659	329.59	82.09	329.59	82.6053
341.309	82.4101	341.309	81.4775	341.309	81.9688
353.027	81.4064	353.027	80.5167	353.027	80.9843
366.211	81.6933	366.211	79.5403	366.211	80.7489
379.395	82.1173	379.395	78.7769	379.395	80.7606
392.578	84.016	392.578	79.3793	392.578	82.2891
405.762	84.5715	405.762	80.2952	405.762	82.9397
420.41	84.3953	420.41	81.0431	420.41	83.0349
435.059	84.6194	435.059	80.9938	435.059	83.1744
451.172	85.2019	451.172	81.8157	451.172	83.8308
465.82	84.4494	465.82	81.6565	465.82	83.2737
483.398	84.9073	483.398	81.8537	483.398	83.6435
499.512	84.6144	499.512	81.861	499.512	83.4523
517.09	83.6013	517.09	81.1777	517.09	82.5564
536.133	83.6297	536.133	80.555	536.133	82.359
555.176	83.4495	555.176	80.5394	555.176	82.2338
574.219	84.148	574.219	80.5709	574.219	82.7178
594.727	83.7571	594.727	80.9044	594.727	82.5609
615.234	83.9309	615.234	81.1165	615.234	82.7478
637.207	84.0701	637.207	80.4902	637.207	82.639
659.18	82.8085	659.18	81.2407	659.18	82.095
682.617	82.8026	682.617	81.0947	682.617	82.0321
707.52	83.802	707.52	81.6612	707.52	82.8622
732.422	82.6181	732.422	81.9074	732.422	82.2773
757.324	82.5173	757.324	82.3768	757.324	82.4476
785.156	82.6316	785.156	82.1255	785.156	82.3859
811.523	82.2079	811.523	81.5324	811.523	81.8833
840.82	82.3451	840.82	82.065	840.82	82.2073
870.117	82.3138	870.117	80.689	870.117	81.577
900.879	82.8313	900.879	81.8531	900.879	82.3697
933.105	82.5443	933.105	80.6885	933.105	81.7148
965.332	82.4031	965.332	81.6869	965.332	82.0598
1,000.49	82.9069	1,000.49	81.1929	1,000.49	82.1339
1,035.64	82.5308	1,035.64	81.8001	1,035.64	82.1808
1,072.27	82.0495	1,072.27	81.4785	1,072.27	81.7734
1,108.89	83.2519	1,108.89	81.4383	1,108.89	82.4391
1,148.44	82.4955	1,148.44	80.8114	1,148.44	81.7346
1,189.45	83.4157	1,189.45	81.1062	1,189.45	82.4127
1,230.47	83.061	1,230.47	80.7395	1,230.47	82.0536
1,274.41	82.8403	1,274.41	80.073	1,274.41	81.6735
1,319.82	83.7154	1,319.82	80.919	1,319.82	82.5385
1,366.7	83.5205	1,366.7	81.0991	1,366.7	82.4764
1,413.57	84.0806	1,413.57	81.2919	1,413.57	82.9063
1,463.38	84.0678	1,463.38	80.8151	1,463.38	82.7391
1,516.11	84.0276	1,516.11	79.1689	1,516.11	82.245
1,568.85	83.4092	1,568.85	79.532	1,568.85	81.8896
1,624.51	83.5145	1,624.51	79.6849	1,624.51	82.0088
1,681.64	83.2497	1,681.64	80.3924	1,681.64	82.0519
1,741.7	83.6614	1,741.7	79.1816	1,741.7	81.9752
1,803.22	83.006	1,803.22	79.7137	1,803.22	81.6646
1,866.21	82.5239	1,866.21	79.0056	1,866.21	81.1117
1,932.13	81.5116	1,932.13	78.8176	1,932.13	80.3702
1,999.51	81.4171	1,999.51	78.8678	1,999.51	80.3269
2,069.82	80.2172	2,069.82	79.3657	2,069.82	79.8123
2,143.07	80.3245	2,143.07	79.4095	2,143.07	79.891
2,219.24	78.9449	2,219.24	78.7233	2,219.24	78.8355
2,296.88	77.6863	2,296.88	78.4315	2,296.88	78.0749
2,378.91	74.5163	2,378.91	78.2803	2,378.91	76.7939
2,462.4	75.1517	2,462.4	78.3062	2,462.4	77.0093
2,548.83	76.9659	2,548.83	78.2908	2,548.83	77.6787
2,639.65	76.092	2,639.65	78.4504	2,639.65	77.4293
2,731.93	74.2818	2,731.93	77.6198	2,731.93	76.2639
2,828.61	73.1612	2,828.61	77.6947	2,828.61	75.9944
2,928.22	74.2092	2,928.22	77.5064	2,928.22	76.1635
3,030.76	74.7253	3,030.76	77.8814	3,030.76	76.5839
3,137.7	75.1017	3,137.7	78.3338	3,137.7	77.0117
3,249.02	75.7921	3,249.02	78.2023	3,249.02	77.1623
3,363.28	75.8499	3,363.28	78.3664	3,363.28	77.2879
3,481.93	77.4713	3,481.93	78.146	3,481.93	77.8217
3,604.98	77.4293	3,604.98	77.5123	3,604.98	77.471
3,732.42	77.1972	3,732.42	76.9012	3,732.42	77.0517
3,864.26	77.9979	3,864.26	76.6933	3,864.26	77.3944
4,000.49	78.5078	4,000.49	76.4435	4,000.49	77.5971
4,141.11	79.5059	4,141.11	76.8726	4,141.11	78.3858
4,287.6	79.6756	4,287.6	77.4297	4,287.6	78.6963
4,438.48	79.1443	4,438.48	76.8387	4,438.48	78.1427
4,595.21	79.3892	4,595.21	77.1877	4,595.21	78.4265
4,756.35	79.1279	4,756.35	76.5724	4,756.35	78.0355
4,924.8	79.7548	4,924.8	76.499	4,924.8	78.4251
5,097.66	81.3812	5,097.66	77.1453	5,097.66	79.7604
5,277.83	81.6307	5,277.83	77.748	5,277.83	80.1096
5,463.87	81.9485	5,463.87	77.5326	5,463.87	80.2792
5,657.23	81.7184	5,657.23	77.3363	5,657.23	80.0581
5,856.45	80.7833	5,856.45	77.0626	5,856.45	79.3098
6,062.99	79.6028	6,062.99	76.3217	6,062.99	78.265
6,276.86	80.6846	6,276.86	75.8624	6,276.86	78.911
6,498.05	80.3756	6,498.05	75.1563	6,498.05	78.5069
6,726.56	79.2633	6,726.56	74.8513	6,726.56	77.595
6,963.87	79.6205	6,963.87	75.3678	6,963.87	77.9951
7,209.96	80.5894	7,209.96	75.7979	7,209.96	78.8234
7,464.84	80.948	7,464.84	75.6283	7,464.84	79.0564
7,727.05	80.5847	7,727.05	74.0419	7,727.05	78.444
7,999.51	80.054	7,999.51	71.0166	7,999.51	77.5545
8,282.23	79.2758	8,282.23	69.1959	8,282.23	76.6722
8,573.73	79.9109	8,573.73	68.0745	8,573.73	77.1762
8,876.95	79.4327	8,876.95	69.2913	8,876.95	76.8237
9,188.96	78.2428	9,188.96	71.0189	9,188.96	75.9862
9,514.16	78.3062	9,514.16	70.6868	9,514.16	75.9889
9,849.61	78.4163	9,849.61	67.1533	9,849.61	75.7192
10,196.8	78.1402	10,196.8	65.347	10,196.8	75.3524
10,555.7	77.0983	10,555.7	66.7474	10,555.7	74.4712
10,927.7	75.6451	10,927.7	67.5104	10,927.7	73.2555
11,313	75.6239	11,313	66.8669	11,313	73.1565
11,712.9	75.7077	11,712.9	65.7255	11,712.9	73.1129
12,126	75.3745	12,126	64.4961	12,126	72.7052
12,553.7	74.9487	12,553.7	64.2913	12,553.7	72.2965
12,996.1	74.4191	12,996.1	64.6584	12,996.1	71.845
13,454.6	74.0478	13,454.6	64.7514	13,454.6	71.5203
13,929.2	73.1637	13,929.2	64.4605	13,929.2	70.7026
14,419.9	72.4772	14,419.9	64.0162	14,419.9	70.0456
14,928.2	71.5299	14,928.2	61.9258	14,928.2	68.9711
15,455.6	71.1948	15,455.6	61.8264	15,455.6	68.6598
16,000.5	70.1975	16,000.5	62.7711	16,000.5	67.9092
16,564.5	69.4288	16,564.5	63.174	16,564.5	67.3417
17,148.9	68.9692	17,148.9	62.5019	17,148.9	66.8422
17,752.4	68.1932	17,752.4	60.7794	17,752.4	65.9069
18,379.4	66.8114	18,379.4	59.1361	18,379.4	64.4859
19,026.9	65.0679	19,026.9	57.836	19,026.9	62.81
19,697.8	63.4098	19,697.8	58.217	19,697.8	61.5473
19,999.5	62.4849	19,999.5	58.6384	19,999.5	60.9743
