"Horizontal Reflections"							
"Front"		"Side"		"Rear"		"Total Horizontal Reflection"	
"Frequency [Hz]"	"Sound Pessure Level [dB]  / [2.83V 1m] "	"Frequency [Hz]"	"Sound Pessure Level [dB]  / [2.83V 1m] "	"Frequency [Hz]"	"Sound Pessure Level [dB]  / [2.83V 1m] "	"Frequency [Hz]"	"Sound Pessure Level [dB]  / [2.83V 1m] "
20.5078	44.7694	20.5078	45.554	20.5078	47.2369	20.5078	46.4092
21.9727	54.9685	21.9727	54.715	21.9727	54.0189	21.9727	54.4163
23.4375	58.4537	23.4375	58.3587	23.4375	57.9452	23.4375	58.1649
24.9023	60.6385	24.9023	60.6044	24.9023	60.359	24.9023	60.4835
26.3672	62.4549	26.3672	62.3364	26.3672	61.9944	26.3672	62.1835
27.832	64.3707	27.832	64.2254	27.832	63.8354	27.832	64.0539
29.2969	66.3567	29.2969	66.2567	29.2969	66.0031	29.2969	66.1449
30.7617	68.0505	30.7617	67.91	30.7617	67.4921	30.7617	67.7235
32.2266	69.6394	32.2266	69.5393	32.2266	69.2911	32.2266	69.4303
33.6914	71.1337	33.6914	71.0138	33.6914	70.7161	33.6914	70.8837
35.1562	72.6441	35.1562	72.5161	35.1562	72.1885	35.1562	72.3725
36.6211	73.8853	36.6211	73.7534	36.6211	73.4187	36.6211	73.607
38.0859	75.0236	38.0859	74.896	38.0859	74.5736	38.0859	74.7549
39.5508	76.217	39.5508	76.071	39.5508	75.7062	39.5508	75.9123
41.0156	77.4497	41.0156	77.3569	41.0156	77.1952	41.0156	77.2908
42.4805	78.3037	42.4805	78.1633	42.4805	77.827	42.4805	78.0178
43.9453	79.1337	43.9453	78.9805	43.9453	78.6075	43.9453	78.8192
45.4102	79.9537	45.4102	79.8	45.4102	79.4368	45.4102	79.6438
46.875	80.7439	46.875	80.5704	46.875	80.1588	46.875	80.3941
48.3398	81.4831	48.3398	81.3078	48.3398	80.9029	48.3398	81.1351
51.2695	82.7154	51.2695	82.5319	51.2695	82.1077	51.2695	82.3514
52.7344	83.2661	52.7344	83.0876	52.7344	82.6827	52.7344	82.9156
54.1992	83.7402	54.1992	83.56	54.1992	83.1651	54.1992	83.3934
55.6641	84.2476	55.6641	84.0572	55.6641	83.6519	55.6641	83.8875
58.5938	85.0227	58.5938	84.8093	58.5938	84.3456	58.5938	84.6155
60.0586	85.3759	60.0586	85.1565	60.0586	84.6808	60.0586	84.958
62.9883	86.0986	62.9883	85.8569	62.9883	85.3157	62.9883	85.6309
64.4531	86.3938	64.4531	86.1457	64.4531	85.5879	64.4531	85.913
67.3828	86.8057	67.3828	86.5693	67.3828	86.0658	67.3828	86.3607
68.8477	86.9644	68.8477	86.7462	68.8477	86.301	68.8477	86.5626
71.7773	87.3574	71.7773	87.1343	71.7773	86.7012	71.7773	86.9577
74.707	87.7804	74.707	87.5376	74.707	87.076	74.707	87.3511
77.6367	88.0891	77.6367	87.8355	77.6367	87.3673	77.6367	87.648
79.1016	88.1951	79.1016	87.9342	79.1016	87.4481	79.1016	87.7394
82.0312	88.342	82.0312	88.0776	82.0312	87.5947	82.0312	87.8852
84.9609	88.4493	84.9609	88.1884	84.9609	87.7274	84.9609	88.0061
87.8906	88.5187	87.8906	88.2683	87.8906	87.896	87.8906	88.1278
90.8203	88.6743	90.8203	88.3702	90.8203	87.9237	90.8203	88.2044
95.2148	88.7798	95.2148	88.4573	95.2148	87.9704	95.2148	88.2756
98.1445	88.847	98.1445	88.5143	98.1445	88.0056	98.1445	88.3241
101.074	88.8251	101.074	88.4795	101.074	87.9485	101.074	88.2812
105.469	88.8403	105.469	88.4941	105.469	88.0119	105.469	88.3198
108.398	88.9592	108.398	88.5633	108.398	88.0036	108.398	88.3622
112.793	88.9691	112.793	88.5338	112.793	87.87	112.793	88.2913
117.188	88.9548	117.188	88.4663	117.188	87.8078	117.188	88.2384
120.117	88.9774	120.117	88.4821	120.117	87.7326	120.117	88.2126
124.512	88.9095	124.512	88.4371	124.512	87.6655	124.512	88.1519
128.906	88.59	128.906	88.1851	128.906	87.6192	128.906	87.983
133.301	88.5088	133.301	88.0597	133.301	87.4994	133.301	87.8702
139.16	88.5315	139.16	87.9836	139.16	87.2859	139.16	87.7508
143.555	88.4676	143.555	87.895	143.555	87.1082	143.555	87.626
147.949	88.2006	147.949	87.6764	147.949	86.9747	147.949	87.4362
153.809	88.0395	153.809	87.4612	153.809	86.7894	153.809	87.2478
159.668	88.1231	159.668	87.506	159.668	86.8044	159.668	87.2876
165.527	88.1338	165.527	87.4686	165.527	86.7925	165.527	87.2736
171.387	88.0305	171.387	87.3025	171.387	86.5743	171.387	87.098
177.246	87.9879	177.246	87.2005	177.246	86.3098	177.246	86.9354
183.105	87.7629	183.105	87.0209	183.105	86.032	183.105	86.6999
188.965	87.5897	188.965	86.781	188.965	85.8952	188.965	86.5234
196.289	87.724	196.289	86.8257	196.289	85.8215	196.289	86.5372
203.613	87.8033	203.613	86.8021	203.613	85.4799	203.613	86.4015
210.938	87.5556	210.938	86.6093	210.938	85.2349	210.938	86.1717
218.262	87.182	218.262	86.3268	218.262	85.2711	218.262	86.0043
225.586	87.4913	225.586	86.4158	225.586	85.1404	225.586	86.0552
232.91	87.3905	232.91	86.3072	232.91	84.7559	232.91	85.833
241.699	87.1211	241.699	86.0738	241.699	84.3664	241.699	85.5258
250.488	87.1563	250.488	86.1019	250.488	84.177	250.488	85.4694
259.277	87.036	259.277	86.052	259.277	84.25	259.277	85.4482
268.066	86.4536	268.066	85.5531	268.066	83.9712	268.066	85.0161
276.855	86.0478	276.855	85.2951	276.855	84.0164	276.855	84.8481
287.109	86.3354	287.109	84.3505	287.109	84.8835	287.109	85.0751
297.363	87.7961	297.363	85.4903	297.363	83.974	297.363	85.4056
307.617	87.2414	307.617	85.6328	307.617	83.399	307.617	85.0526
319.336	86.8876	319.336	85.3158	319.336	83.086	319.336	84.7252
329.59	86.5722	329.59	85.3293	329.59	82.6568	329.59	84.4774
341.309	86.6395	341.309	84.8475	341.309	82.7282	341.309	84.3683
353.027	86.3991	353.027	84.9342	353.027	81.949	353.027	84.0492
366.211	86.443	366.211	84.8796	366.211	81.478	366.211	83.8976
379.395	86.4237	379.395	85.2445	379.395	81.7116	379.395	84.0916
392.578	86.1515	392.578	85.0539	392.578	81.6956	392.578	83.9284
405.762	86.6119	405.762	85.0889	405.762	81.9274	405.762	84.1671
420.41	87.0832	420.41	85.8351	420.41	81.8075	420.41	84.561
435.059	87.049	435.059	85.6058	435.059	81.8442	435.059	84.4754
451.172	86.8555	451.172	85.8444	451.172	81.6143	451.172	84.4326
465.82	86.763	465.82	85.6016	465.82	81.7083	465.82	84.3358
483.398	86.5286	483.398	85.2227	483.398	81.1277	483.398	83.9501
499.512	87.1561	499.512	85.512	499.512	80.9108	499.512	84.2316
517.09	86.4458	517.09	85.0681	517.09	81.3236	517.09	83.9198
536.133	87.1149	536.133	84.9692	536.133	80.4927	536.133	83.9165
555.176	86.7503	555.176	85.3525	555.176	79.9776	555.176	83.7982
574.219	87.1593	574.219	85.3586	574.219	80.4564	574.219	84.0675
594.727	87.436	594.727	85.0077	594.727	81.3714	594.727	84.2833
615.234	88.3831	615.234	86.1632	615.234	81.1363	615.234	85.0158
637.207	89.5476	637.207	86.903	637.207	82.6829	637.207	86.1198
659.18	89.2515	659.18	86.3976	659.18	82.2051	659.18	85.7118
682.617	89.2873	682.617	86.3298	682.617	81.8097	682.617	85.6157
707.52	89.4405	707.52	86.2598	707.52	81.4674	707.52	85.5911
732.422	88.9039	732.422	85.9665	732.422	81.5111	732.422	85.2576
757.324	89.164	757.324	85.8807	757.324	81.0169	757.324	85.2464
785.156	89.0942	785.156	85.8962	785.156	80.5996	785.156	85.1376
811.523	89.309	811.523	85.6212	811.523	81.2593	811.523	85.2856
840.82	89.3889	840.82	85.8929	840.82	80.0805	840.82	85.1928
870.117	89.2828	870.117	85.7153	870.117	79.882	870.117	85.0485
900.879	88.7774	900.879	85.858	900.879	78.335	900.879	84.62
933.105	88.5177	933.105	84.7299	933.105	78.217	933.105	84.0785
965.332	88.5037	965.332	84.7942	965.332	77.404	965.332	83.9895
1,000.49	88.42	1,000.49	84.3528	1,000.49	77.5338	1,000.49	83.8153
1,035.64	88.1518	1,035.64	84.0188	1,035.64	76.1701	1,035.64	83.404
1,072.27	87.571	1,072.27	84.0615	1,072.27	77.0753	1,072.27	83.1979
1,108.89	86.3162	1,108.89	82.4892	1,108.89	75.8587	1,108.89	81.8432
1,148.44	85.1144	1,148.44	80.8034	1,148.44	74.3811	1,148.44	80.4543
1,189.45	84.5906	1,189.45	81.2299	1,189.45	75.1952	1,189.45	80.4252
1,230.47	84.459	1,230.47	80.9307	1,230.47	73.6294	1,230.47	80.0379
1,274.41	85.7394	1,274.41	81.625	1,274.41	74.7418	1,274.41	81.1063
1,319.82	86.7612	1,319.82	82.5234	1,319.82	75.6646	1,319.82	82.0778
1,366.7	88.2054	1,366.7	83.702	1,366.7	74.9279	1,366.7	83.2261
1,413.57	88.6024	1,413.57	83.8587	1,413.57	75.9725	1,413.57	83.6052
1,463.38	88.413	1,463.38	83.2832	1,463.38	74.7416	1,463.38	83.2183
1,516.11	87.5295	1,516.11	82.464	1,516.11	74.1858	1,516.11	82.3784
1,568.85	86.7033	1,568.85	81.5599	1,568.85	73.1898	1,568.85	81.5168
1,624.51	86.7429	1,624.51	81.8818	1,624.51	73.8789	1,624.51	81.6905
1,681.64	86.919	1,681.64	82.6195	1,681.64	75.4862	1,681.64	82.1773
1,741.7	86.7984	1,741.7	82.2539	1,741.7	75.5445	1,741.7	82.0037
1,803.22	88.0122	1,803.22	82.7619	1,803.22	74.0642	1,803.22	82.7635
1,866.21	87.3859	1,866.21	82.4033	1,866.21	73.5765	1,866.21	82.2231
1,932.13	87.267	1,932.13	82.0875	1,932.13	73.4834	1,932.13	82.05
1,999.51	88.2231	1,999.51	83.1217	1,999.51	73.7629	1,999.51	82.9821
2,069.82	88.5114	2,069.82	83.5738	2,069.82	74.1805	2,069.82	83.3262
2,143.07	87.8448	2,143.07	83.1493	2,143.07	74.008	2,143.07	82.7652
2,219.24	86.685	2,219.24	82.1153	2,219.24	73.1377	2,219.24	81.6647
2,296.88	86.594	2,296.88	82.0828	2,296.88	72.178	2,296.88	81.5333
2,378.91	87.9262	2,378.91	82.7458	2,378.91	71.909	2,378.91	82.5788
2,462.4	89.1261	2,462.4	83.4999	2,462.4	71.9634	2,462.4	83.6075
2,548.83	88.66	2,548.83	83.0449	2,548.83	71.3387	2,548.83	83.1388
2,639.65	87.2447	2,639.65	81.7648	2,639.65	71.2626	2,639.65	81.8146
2,731.93	86.3617	2,731.93	81.5232	2,731.93	71.2517	2,731.93	81.1601
2,828.61	86.5058	2,828.61	81.9354	2,828.61	70.9228	2,828.61	81.3632
2,928.22	86.9073	2,928.22	82.3993	2,928.22	70.2547	2,928.22	81.7393
3,030.76	86.728	3,030.76	82.353	3,030.76	70.3521	3,030.76	81.6141
3,137.7	86.7175	3,137.7	81.9854	3,137.7	70.4775	3,137.7	81.4948
3,249.02	86.6354	3,249.02	81.5208	3,249.02	70.526	3,249.02	81.303
3,363.28	86.8359	3,363.28	81.3592	3,363.28	69.8309	3,363.28	81.364
3,481.93	87.0014	3,481.93	81.8003	3,481.93	70.3921	3,481.93	81.6229
3,604.98	87.964	3,604.98	82.3408	3,604.98	70.7644	3,604.98	82.4449
3,732.42	89.1089	3,732.42	82.9971	3,732.42	70.1303	3,732.42	83.4084
3,864.26	88.0222	3,864.26	81.5845	3,864.26	70.119	3,864.26	82.2724
4,000.49	87.6755	4,000.49	82.1363	4,000.49	71.5245	4,000.49	82.2214
4,141.11	87.0372	4,141.11	83.7767	4,141.11	72.4194	4,141.11	82.4001
4,287.6	86.8691	4,287.6	83.5533	4,287.6	72.451	4,287.6	82.2218
4,438.48	86.7942	4,438.48	83.7198	4,438.48	72.2327	4,438.48	82.2319
4,595.21	86.1093	4,595.21	83.9985	4,595.21	72.0871	4,595.21	81.9774
4,756.35	87.4646	4,756.35	84.4438	4,756.35	71.8927	4,756.35	82.8758
4,924.8	86.8654	4,924.8	84.4411	4,924.8	71.819	4,924.8	82.5463
5,097.66	87.1358	5,097.66	84.3601	5,097.66	72.6227	5,097.66	82.6954
5,277.83	87.6005	5,277.83	84.5087	5,277.83	72.4083	5,277.83	83.0003
5,463.87	87.8625	5,463.87	84.2943	5,463.87	72.615	5,463.87	83.0786
5,657.23	88.0815	5,657.23	84.3704	5,657.23	72.4109	5,657.23	83.2262
5,856.45	87.657	5,856.45	83.8465	5,856.45	72.0355	5,856.45	82.7682
6,062.99	87.2662	6,062.99	84.1144	6,062.99	71.0356	6,062.99	82.5995
6,276.86	87.346	6,276.86	83.4809	6,276.86	70.3392	6,276.86	82.3844
6,498.05	87.5064	6,498.05	83.7911	6,498.05	70.2497	6,498.05	82.591
6,726.56	88.0607	6,726.56	83.7303	6,726.56	70.337	6,726.56	82.9157
6,963.87	87.9662	6,963.87	83.2354	6,963.87	70.1993	6,963.87	82.6898
7,209.96	88.2173	7,209.96	83.7172	7,209.96	71.0817	7,209.96	83.0347
7,464.84	87.3264	7,464.84	82.8361	7,464.84	69.8488	7,464.84	82.1359
7,727.05	87.4761	7,727.05	82.7831	7,727.05	69.3669	7,727.05	82.2019
7,999.51	87.2792	7,999.51	82.4306	7,999.51	68.6463	7,999.51	81.9424
8,282.23	87.6024	8,282.23	82.7378	8,282.23	68.0209	8,282.23	82.2395
8,573.73	88.0894	8,573.73	82.3822	8,573.73	66.7071	8,573.73	82.4498
8,876.95	88.6413	8,876.95	82.0617	8,876.95	65.7941	8,876.95	82.7615
9,188.96	88.8445	9,188.96	81.8328	9,188.96	64.504	9,188.96	82.8527
9,514.16	89.1058	9,514.16	81.6067	9,514.16	64.1981	9,514.16	83.0073
9,849.61	88.9908	9,849.61	81.0483	9,849.61	63.6548	9,849.61	82.8037
10,196.8	89.2331	10,196.8	80.9533	10,196.8	64.3145	10,196.8	82.9884
10,555.7	89.1925	10,555.7	81.1334	10,555.7	65.455	10,555.7	82.9965
10,927.7	89.2733	10,927.7	81.4539	10,927.7	65.686	10,927.7	83.1231
11,313	89.3166	11,313	81.5768	11,313	65.2767	11,313	83.1775
11,712.9	89.2757	11,712.9	81.5018	11,712.9	65.3587	11,712.9	83.1311
12,126	89.2384	12,126	81.6688	12,126	65.653	12,126	83.1366
12,553.7	89.0103	12,553.7	81.4293	12,553.7	65.3992	12,553.7	82.9059
12,996.1	88.8111	12,996.1	80.9399	12,996.1	64.2454	12,996.1	82.6428
13,454.6	88.8176	13,454.6	80.8031	13,454.6	63.8703	13,454.6	82.6199
13,929.2	88.9264	13,929.2	80.5553	13,929.2	63.7231	13,929.2	82.6639
14,419.9	88.7274	14,419.9	79.7826	14,419.9	62.9228	14,419.9	82.3682
14,928.2	87.9666	14,928.2	78.384	14,928.2	61.3637	14,928.2	81.5111
15,455.6	86.3787	15,455.6	77.1691	15,455.6	61.4359	15,455.6	79.9857
16,000.5	83.273	16,000.5	78.7883	16,000.5	62.9436	16,000.5	78.0187
16,564.5	87.7229	16,564.5	76.6509	16,564.5	57.7181	16,564.5	81.081
17,148.9	87.0977	17,148.9	73.0197	17,148.9	55.1883	17,148.9	80.2289
17,752.4	86.0146	17,752.4	71.0544	17,752.4	56.2051	17,752.4	79.108
18,379.4	84.8133	18,379.4	69.7133	18,379.4	56.173	18,379.4	77.9042
19,026.9	84.0663	19,026.9	68.3312	19,026.9	54.9157	19,026.9	77.1306
19,697.8	83.2407	19,697.8	66.3819	19,697.8	54.2384	19,697.8	76.2691
19,999.5	82.7496	19,999.5	65.4068	19,999.5	53.6627	19,999.5	75.7646
