"Early Reflections"											
"Floor Bounce"		"Ceiling Bounce"		"Front Wall Bounce"		"Side Wall Bounce"		"Rear Wall Bounce"		"Total Early Reflection"	
"Frequency [Hz]"	"Sound Pessure Level [dB]  / [2.83V 1m] "	"Frequency [Hz]"	"Sound Pessure Level [dB]  / [2.83V 1m] "	"Frequency [Hz]"	"Sound Pessure Level [dB]  / [2.83V 1m] "	"Frequency [Hz]"	"Sound Pessure Level [dB]  / [2.83V 1m] "	"Frequency [Hz]"	"Sound Pessure Level [dB]  / [2.83V 1m] "	"Frequency [Hz]"	"Sound Pessure Level [dB]  / [2.83V 1m] "
20.5078	52.4106	20.5078	49.4857	20.5078	51.1703	20.5078	52.0588	20.5078	52.1231	20.5078	51.6495
21.9727	58.1415	21.9727	56.0774	21.9727	57.5622	21.9727	57.527	21.9727	56.0212	21.9727	57.3187
23.4375	58.6846	23.4375	56.7158	23.4375	57.8372	23.4375	57.9912	23.4375	57.9052	23.4375	57.8989
24.9023	58.7824	24.9023	56.5059	24.9023	57.8214	24.9023	57.712	24.9023	57.7741	24.9023	57.7673
26.3672	60.5625	26.3672	58.556	26.3672	59.6443	26.3672	59.5751	26.3672	59.8018	26.3672	59.6433
27.832	63.5331	27.832	61.3239	27.832	62.6199	27.832	62.5454	27.832	62.7655	27.832	62.5965
29.2969	65.0421	29.2969	62.7035	29.2969	64.1914	29.2969	63.824	29.2969	63.2671	29.2969	63.9142
30.7617	68.2286	30.7617	66.8361	30.7617	67.7247	30.7617	67.4008	30.7617	66.7873	30.7617	67.4689
32.2266	70.353	32.2266	68.9861	32.2266	69.8405	32.2266	69.6078	32.2266	69.1589	32.2266	69.6497
33.6914	72.2724	33.6914	71.0805	33.6914	71.8172	33.6914	71.5932	33.6914	71.2232	33.6914	71.6429
35.1562	73.8273	35.1562	72.9339	35.1562	73.4735	35.1562	73.2933	35.1562	73.007	35.1562	73.3364
36.6211	75.5007	36.6211	74.5587	36.6211	75.1298	36.6211	74.9853	36.6211	74.687	36.6211	75.0078
38.0859	77.1926	38.0859	76.4102	38.0859	76.8887	38.0859	76.7585	38.0859	76.5057	38.0859	76.7798
39.5508	78.6578	39.5508	77.9443	39.5508	78.3867	39.5508	78.2672	39.5508	78.0293	39.5508	78.2843
41.0156	79.2306	41.0156	79.1419	41.0156	79.14	41.0156	79.1555	41.0156	79.4131	41.0156	79.189
42.4805	80.3247	42.4805	79.4901	42.4805	80.0142	42.4805	79.8552	42.4805	79.5757	42.4805	79.8843
43.9453	81.6723	43.9453	80.9155	43.9453	81.3976	43.9453	81.2501	43.9453	80.9924	43.9453	81.2756
45.4102	82.757	45.4102	82.0507	45.4102	82.4956	45.4102	82.3648	45.4102	82.177	45.4102	82.3916
46.875	83.8591	46.875	83.1949	46.875	83.6191	46.875	83.4739	46.875	83.249	46.875	83.5036
48.3398	84.9789	48.3398	84.3513	48.3398	84.7667	48.3398	84.5993	48.3398	84.3333	48.3398	84.6333
51.2695	86.7937	51.2695	86.2005	51.2695	86.5981	51.2695	86.4458	51.2695	86.1841	51.2695	86.4724
52.7344	87.7132	52.7344	87.1381	52.7344	87.5289	52.7344	87.3773	52.7344	87.1257	52.7344	87.404
54.1992	88.5743	54.1992	88.0516	54.1992	88.4111	54.1992	88.2615	54.1992	88.0322	54.1992	88.2904
55.6641	89.472	55.6641	88.9889	55.6641	89.326	55.6641	89.1691	55.6641	88.9312	55.6641	89.2011
58.5938	91.0059	58.5938	90.5484	58.5938	90.8825	58.5938	90.7021	58.5938	90.417	58.5938	90.7386
60.0586	91.7268	60.0586	91.2677	60.0586	91.6062	60.0586	91.4251	60.0586	91.129	60.0586	91.4599
62.9883	93.0877	62.9883	92.6483	62.9883	92.9839	62.9883	92.7812	62.9883	92.4485	62.9883	92.8214
64.4531	93.6826	64.4531	93.2485	64.4531	93.5841	64.4531	93.379	64.4531	93.0418	64.4531	93.4194
67.3828	94.6425	67.3828	94.248	67.3828	94.5604	67.3828	94.3607	67.3828	94.0402	67.3828	94.4006
68.8477	95.051	68.8477	94.6801	68.8477	94.9782	68.8477	94.785	68.8477	94.4722	68.8477	94.8229
71.7773	95.625	71.7773	95.2999	71.7773	95.5619	71.7773	95.3993	71.7773	95.1609	71.7773	95.4324
74.707	96.17	74.707	95.8749	74.707	96.1164	74.707	95.949	74.707	95.7165	74.707	95.9864
77.6367	96.6368	77.6367	96.3483	77.6367	96.5922	77.6367	96.4137	77.6367	96.1664	77.6367	96.4538
79.1016	96.8545	79.1016	96.5713	79.1016	96.8162	79.1016	96.6264	79.1016	96.3618	79.1016	96.6695
82.0312	97.1841	82.0312	96.9034	82.0312	97.1541	82.0312	96.9467	82.0312	96.6559	82.0312	96.9944
84.9609	97.432	84.9609	97.1788	84.9609	97.4054	84.9609	97.2259	84.9609	96.9612	84.9609	97.2644
87.8906	97.5928	87.8906	97.4152	87.8906	97.5914	87.8906	97.4356	87.8906	97.2734	87.8906	97.4759
90.8203	97.8457	90.8203	97.6624	90.8203	97.8505	90.8203	97.6839	90.8203	97.5315	90.8203	97.7287
95.2148	98.2611	95.2148	98.0455	95.2148	98.2959	95.2148	98.0353	95.2148	97.6816	95.2148	98.0959
98.1445	98.2594	98.1445	98.0731	98.1445	98.285	98.1445	98.0708	98.1445	97.8148	98.1445	98.1234
101.074	98.1958	101.074	98.0132	101.074	98.2194	101.074	98.0187	101.074	97.7937	101.074	98.0686
105.469	98.1667	105.469	97.95	105.469	98.1698	105.469	97.9472	105.469	97.7624	105.469	98.0136
108.398	98.1186	108.398	97.8703	108.398	98.1535	108.398	97.8606	108.398	97.5909	108.398	97.943
112.793	98.1113	112.793	97.895	112.793	98.162	112.793	97.856	112.793	97.4847	112.793	97.9345
117.188	97.8297	117.188	97.6866	117.188	97.9228	117.188	97.5997	117.188	97.2998	117.188	97.6929
120.117	97.7784	120.117	97.5886	120.117	97.8581	120.117	97.4676	120.117	97.0572	120.117	97.5822
124.512	97.6468	124.512	97.4285	124.512	97.7229	124.512	97.3307	124.512	96.8215	124.512	97.4338
128.906	97.225	128.906	97.0134	128.906	97.292	128.906	96.9743	128.906	96.569	128.906	97.052
133.301	97.0079	133.301	96.7325	133.301	97.0363	133.301	96.7104	133.301	96.3437	133.301	96.7981
139.16	96.8318	139.16	96.4916	139.16	96.8463	139.16	96.4884	139.16	96.1084	139.16	96.5873
143.555	96.6841	143.555	96.3666	143.555	96.7301	143.555	96.3284	143.555	95.9037	143.555	96.4408
147.949	96.5229	147.949	96.1247	147.949	96.5621	147.949	96.1475	147.949	95.6857	147.949	96.2554
153.809	95.9541	153.809	95.7735	153.809	96.0933	153.809	95.7467	153.809	95.4221	153.809	95.8345
159.668	95.8544	159.668	95.602	159.668	95.9245	159.668	95.53	159.668	95.204	159.668	95.6505
165.527	95.6668	165.527	95.3561	165.527	95.7393	165.527	95.3099	165.527	94.9839	165.527	95.4414
171.387	95.5359	171.387	95.2298	171.387	95.6084	171.387	95.1358	171.387	94.7299	171.387	95.2824
177.246	95.3801	177.246	94.9727	177.246	95.4471	177.246	94.925	177.246	94.4932	177.246	95.0848
183.105	95.1164	183.105	94.8833	183.105	95.2499	183.105	94.7138	183.105	94.1811	183.105	94.8751
188.965	94.6566	188.965	94.4502	188.965	94.863	188.965	94.359	188.965	93.9878	188.965	94.5055
196.289	94.6371	196.289	94.363	196.289	94.7859	196.289	94.2012	196.289	93.7256	196.289	94.3857
203.613	94.468	203.613	94.1414	203.613	94.651	203.613	93.9996	203.613	93.3867	203.613	94.1922
210.938	94.1266	210.938	94.0128	210.938	94.3807	210.938	93.7879	210.938	93.2027	210.938	93.9596
218.262	93.9394	218.262	93.8816	218.262	94.1957	218.262	93.5969	218.262	93.2162	218.262	93.798
225.586	94.1482	225.586	93.875	225.586	94.3835	225.586	93.6809	225.586	93.1895	225.586	93.9065
232.91	94.1208	232.91	93.9019	232.91	94.4085	232.91	93.6212	232.91	93.0036	232.91	93.8742
241.699	94.1677	241.699	93.7329	241.699	94.3713	241.699	93.6485	241.699	92.9595	241.699	93.8552
250.488	94.3983	250.488	93.7457	250.488	94.4941	250.488	93.6468	250.488	92.8901	250.488	93.9163
259.277	94.3072	259.277	93.4996	259.277	94.4185	259.277	93.4019	259.277	92.6625	259.277	93.7454
268.066	94.0933	268.066	93.3887	268.066	94.2743	268.066	93.2582	268.066	92.3604	268.066	93.582
276.855	93.9738	276.855	93.8632	276.855	94.3325	276.855	93.3784	276.855	92.6587	276.855	93.709
287.109	93.7171	287.109	93.6187	287.109	94.1512	287.109	93.323	287.109	92.6148	287.109	93.569
297.363	94.0705	297.363	93.9591	297.363	94.5618	297.363	93.2679	297.363	92.1859	297.363	93.7263
307.617	94.1183	307.617	93.7889	307.617	94.4104	307.617	93.344	307.617	92.2829	307.617	93.6978
319.336	94.2631	319.336	93.6193	319.336	94.466	319.336	93.0989	319.336	91.9824	319.336	93.6051
329.59	93.847	329.59	93.3348	329.59	94.1741	329.59	93.102	329.59	91.7991	329.59	93.4097
341.309	93.9608	341.309	93.3891	341.309	94.2557	341.309	92.7987	341.309	91.6784	341.309	93.3421
353.027	93.8001	353.027	93.2615	353.027	94.1507	353.027	92.9958	353.027	91.4573	353.027	93.3234
366.211	93.7712	366.211	93.3786	366.211	94.2192	366.211	92.9145	366.211	91.4196	366.211	93.3242
379.395	94.1854	379.395	93.2151	379.395	94.2512	379.395	92.9477	379.395	91.4869	379.395	93.3878
392.578	93.5852	392.578	92.7013	392.578	93.7356	392.578	92.5281	392.578	90.9765	392.578	92.8949
405.762	93.3781	405.762	92.4553	405.762	93.7055	405.762	92.0604	405.762	90.4442	405.762	92.6295
420.41	93.3932	420.41	92.4266	420.41	93.7668	420.41	92.198	420.41	90.3704	420.41	92.6913
435.059	93.1778	435.059	92.2958	435.059	93.6031	435.059	92.1286	435.059	90.319	435.059	92.5645
451.172	93.7384	451.172	92.3963	451.172	93.9176	451.172	92.2363	451.172	89.8467	451.172	92.7689
465.82	94.0072	465.82	93.2237	465.82	94.6006	465.82	92.3092	465.82	89.4731	465.82	93.1514
483.398	94.4776	483.398	94.2147	483.398	95.2023	483.398	93.341	483.398	90.4685	483.398	93.9421
499.512	94.8084	499.512	93.8898	499.512	95.1346	499.512	93.54	499.512	91.213	499.512	94.0337
517.09	94.0897	517.09	93.1288	517.09	94.3765	517.09	92.9003	517.09	90.9085	517.09	93.3502
536.133	93.7251	536.133	91.734	536.133	94.2321	536.133	92.5418	536.133	89.9257	536.133	92.9258
555.176	93.4246	555.176	91.8582	555.176	93.974	555.176	92.9636	555.176	90.065	555.176	92.9694
574.219	94.173	574.219	91.9715	574.219	94.1153	574.219	93.1409	574.219	90.8687	574.219	93.2457
594.727	93.973	594.727	92.006	594.727	94.3539	594.727	93.1221	594.727	90.8446	594.727	93.2925
615.234	94.2859	615.234	92.8129	615.234	94.8708	615.234	93.6775	615.234	90.9484	615.234	93.7967
637.207	94.6115	637.207	92.2493	637.207	94.5183	637.207	93.8942	637.207	91.7758	637.207	93.8127
659.18	94.3563	659.18	92.0394	659.18	94.4466	659.18	93.4991	659.18	91.961	659.18	93.5998
682.617	94.2289	682.617	92.3718	682.617	94.9105	682.617	93.54	682.617	91.7915	682.617	93.7695
707.52	94.8663	707.52	92.6453	707.52	94.4869	707.52	92.9719	707.52	91.1886	707.52	93.496
732.422	93.545	732.422	92.4929	732.422	93.6408	732.422	91.8317	732.422	90.4287	732.422	92.558
757.324	92.3093	757.324	91.7192	757.324	92.582	757.324	90.5182	757.324	88.9849	757.324	91.4
785.156	91.1525	785.156	90.3999	785.156	91.3206	785.156	88.629	785.156	86.9712	785.156	89.9114
811.523	90.6161	811.523	90.4011	811.523	91.6245	811.523	88.9208	811.523	87.4425	811.523	90.0642
840.82	93.0382	840.82	92.4304	840.82	93.987	840.82	90.836	840.82	88.8819	840.82	92.2113
870.117	93.9858	870.117	92.6858	870.117	95.6773	870.117	92.2055	870.117	89.8586	870.117	93.5197
900.879	95.6617	900.879	93.0934	900.879	96.0153	900.879	93.1541	900.879	90.209	900.879	94.2357
933.105	94.0892	933.105	92.6254	933.105	95.2709	933.105	91.6778	933.105	89.2547	933.105	93.1731
965.332	95.7281	965.332	93.7754	965.332	96.5942	965.332	93.2253	965.332	89.3616	965.332	94.5387
1,000.49	95.6237	1,000.49	93.4021	1,000.49	96.5203	1,000.49	93.0582	1,000.49	89.375	1,000.49	94.4086
1,035.64	96.0598	1,035.64	92.4224	1,035.64	96.1954	1,035.64	92.9362	1,035.64	88.0066	1,035.64	94.179
1,072.27	96.3964	1,072.27	91.974	1,072.27	95.7855	1,072.27	92.1513	1,072.27	86.5907	1,072.27	93.7822
1,108.89	96.1168	1,108.89	92.7557	1,108.89	95.6374	1,108.89	92.0391	1,108.89	87.352	1,108.89	93.7167
1,148.44	95.683	1,148.44	91.6651	1,148.44	95.1027	1,148.44	91.621	1,148.44	85.1521	1,148.44	93.1481
1,189.45	94.6131	1,189.45	90.7395	1,189.45	94.5458	1,189.45	91.5572	1,189.45	85.4724	1,189.45	92.6211
1,230.47	92.8492	1,230.47	87.7046	1,230.47	92.9879	1,230.47	89.9038	1,230.47	83.6987	1,230.47	90.8966
1,274.41	91.9592	1,274.41	87.7424	1,274.41	92.9146	1,274.41	89.3721	1,274.41	83.9264	1,274.41	90.5608
1,319.82	93.4958	1,319.82	87.6509	1,319.82	93.9893	1,319.82	90.2237	1,319.82	85.3075	1,319.82	91.5956
1,366.7	95.6232	1,366.7	88.2387	1,366.7	95.3457	1,366.7	90.7294	1,366.7	85.5041	1,366.7	92.8238
1,413.57	97.0737	1,413.57	89.3352	1,413.57	95.3125	1,413.57	90.0714	1,413.57	83.8594	1,413.57	93.056
1,463.38	97.1045	1,463.38	91.2349	1,463.38	94.0315	1,463.38	88.2316	1,463.38	82.4289	1,463.38	92.3123
1,516.11	95.9907	1,516.11	94.8283	1,516.11	92.756	1,516.11	87.1401	1,516.11	80.1413	1,516.11	91.8411
1,568.85	90.6293	1,568.85	96.3391	1,568.85	94.6486	1,568.85	90.2468	1,568.85	83.7331	1,568.85	92.6708
1,624.51	91.6333	1,624.51	93.8405	1,624.51	95.8992	1,624.51	91.5784	1,624.51	85.8734	1,624.51	93.2066
1,681.64	92.8079	1,681.64	92.1979	1,681.64	95.9697	1,681.64	91.173	1,681.64	84.3167	1,681.64	93.0343
1,741.7	92.6343	1,741.7	89.7524	1,741.7	95.709	1,741.7	90.634	1,741.7	83.5362	1,741.7	92.5385
1,803.22	93.013	1,803.22	88.5752	1,803.22	94.3685	1,803.22	89.1912	1,803.22	81.9159	1,803.22	91.422
1,866.21	92.2419	1,866.21	87.9025	1,866.21	92.7085	1,866.21	87.2751	1,866.21	79.682	1,866.21	89.9253
1,932.13	90.5282	1,932.13	86.8529	1,932.13	91.5978	1,932.13	85.8203	1,932.13	77.1729	1,932.13	88.6219
1,999.51	90.2837	1,999.51	85.9031	1,999.51	92.32	1,999.51	86.1908	1,999.51	77.0547	1,999.51	88.9943
2,069.82	90.2328	2,069.82	85.7391	2,069.82	92.6095	2,069.82	86.3727	2,069.82	77.3074	2,069.82	89.1857
2,143.07	90.1017	2,143.07	86.1279	2,143.07	91.9512	2,143.07	85.6828	2,143.07	76.0556	2,143.07	88.659
2,219.24	89.662	2,219.24	86.0832	2,219.24	90.221	2,219.24	84.3731	2,219.24	74.8155	2,219.24	87.369
2,296.88	89.3107	2,296.88	85.5767	2,296.88	89.3028	2,296.88	83.5591	2,296.88	74.1315	2,296.88	86.6247
2,378.91	87.9684	2,378.91	84.9572	2,378.91	89.3613	2,378.91	83.4478	2,378.91	73.2753	2,378.91	86.3179
2,462.4	86.5541	2,462.4	84.9555	2,462.4	90.0886	2,462.4	83.7179	2,462.4	73.2268	2,462.4	86.5901
2,548.83	86.8904	2,548.83	84.9689	2,548.83	89.4704	2,548.83	82.822	2,548.83	72.495	2,548.83	86.0922
2,639.65	87.8605	2,639.65	84.7093	2,639.65	88.1732	2,639.65	81.8331	2,639.65	71.0156	2,639.65	85.3343
2,731.93	87.7213	2,731.93	83.4896	2,731.93	88.5901	2,731.93	81.945	2,731.93	70.8194	2,731.93	85.4435
2,828.61	88.2155	2,828.61	84.2224	2,828.61	90.2345	2,828.61	83.5041	2,828.61	71.9342	2,828.61	86.8049
2,928.22	89.4276	2,928.22	85.9204	2,928.22	91.814	2,928.22	85.2383	2,928.22	73.2891	2,928.22	88.3632
3,030.76	90.425	3,030.76	86.9459	3,030.76	92.831	3,030.76	86.2048	3,030.76	76.2122	3,030.76	89.3771
3,137.7	91.5861	3,137.7	88.0776	3,137.7	93.1011	3,137.7	86.957	3,137.7	77.4288	3,137.7	89.9452
3,249.02	92.2784	3,249.02	89.1631	3,249.02	92.6659	3,249.02	87.0172	3,249.02	78.4315	3,249.02	89.9525
3,363.28	92.1357	3,363.28	89.5007	3,363.28	92.436	3,363.28	87.2289	3,363.28	78.8304	3,363.28	89.8914
3,481.93	92.1325	3,481.93	90.255	3,481.93	92.1575	3,481.93	87.926	3,481.93	80.4277	3,481.93	90.0202
3,604.98	92.4105	3,604.98	90.6884	3,604.98	91.9757	3,604.98	89.4907	3,604.98	82.319	3,604.98	90.5009
3,732.42	91.6695	3,732.42	90.706	3,732.42	92.3394	3,732.42	90.262	3,732.42	83.0324	3,732.42	90.7858
3,864.26	92.0833	3,864.26	90.9066	3,864.26	91.8252	3,864.26	89.8344	3,864.26	82.8556	3,864.26	90.5344
4,000.49	91.4139	4,000.49	89.8434	4,000.49	92.8359	4,000.49	89.1719	4,000.49	81.1604	4,000.49	90.4971
4,141.11	91.2092	4,141.11	88.7832	4,141.11	93.5594	4,141.11	88.5694	4,141.11	80.8223	4,141.11	90.5739
4,287.6	91.6657	4,287.6	87.1507	4,287.6	93.9528	4,287.6	87.2354	4,287.6	79.0441	4,287.6	90.4568
4,438.48	91.01	4,438.48	86.3911	4,438.48	93.4221	4,438.48	86.1109	4,438.48	77.8247	4,438.48	89.7861
4,595.21	90.674	4,595.21	85.3234	4,595.21	91.8366	4,595.21	84.8286	4,595.21	76.9026	4,595.21	88.4978
4,756.35	89.6524	4,756.35	85.6252	4,756.35	92.6557	4,756.35	84.9676	4,756.35	76.1934	4,756.35	88.8672
4,924.8	90.5903	4,924.8	84.5326	4,924.8	94.0033	4,924.8	85.5102	4,924.8	76.7269	4,924.8	89.9298
5,097.66	90.6538	5,097.66	84.6904	5,097.66	93.2934	5,097.66	84.3226	5,097.66	75.288	5,097.66	89.2982
5,277.83	90.1827	5,277.83	83.787	5,277.83	92.6863	5,277.83	83.6974	5,277.83	75.2794	5,277.83	88.7022
5,463.87	89.4309	5,463.87	82.3704	5,463.87	92.0054	5,463.87	82.1287	5,463.87	75.1935	5,463.87	87.8885
5,657.23	88.3355	5,657.23	81.5296	5,657.23	91.6103	5,657.23	80.6805	5,657.23	73.8176	5,657.23	87.2665
5,856.45	86.2322	5,856.45	79.6998	5,856.45	91.1091	5,856.45	78.9509	5,856.45	71.0738	5,856.45	86.4195
6,062.99	83.8904	6,062.99	77.0562	6,062.99	91.6888	6,062.99	79.4129	6,062.99	71.7766	6,062.99	86.6899
6,276.86	84.246	6,276.86	79.6249	6,276.86	91.7095	6,276.86	78.9325	6,276.86	70.7034	6,276.86	86.7374
6,498.05	86.3922	6,498.05	81.2961	6,498.05	92.706	6,498.05	81.1363	6,498.05	70.6474	6,498.05	87.918
6,726.56	88.4675	6,726.56	82.5468	6,726.56	93.1376	6,726.56	82.3161	6,726.56	71.1077	6,726.56	88.5934
6,963.87	90.347	6,963.87	83.8334	6,963.87	93.4816	6,963.87	83.8946	6,963.87	72.1796	6,963.87	89.2904
7,209.96	90.494	7,209.96	85.5919	7,209.96	94.084	7,209.96	84.6993	7,209.96	74.4659	7,209.96	89.9003
7,464.84	90.6717	7,464.84	87.4602	7,464.84	93.6465	7,464.84	84.0098	7,464.84	73.4797	7,464.84	89.6463
7,727.05	90.7153	7,727.05	86.5903	7,727.05	94.939	7,727.05	85.6738	7,727.05	72.0032	7,727.05	90.6894
7,999.51	91.2501	7,999.51	85.2422	7,999.51	94.5085	7,999.51	85.8333	7,999.51	74.5497	7,999.51	90.4272
8,282.23	92.5359	8,282.23	83.5334	8,282.23	94.2989	8,282.23	85.4247	8,282.23	75.131	8,282.23	90.3952
8,573.73	92.8927	8,573.73	83.512	8,573.73	93.2622	8,573.73	84.6407	8,573.73	74.6382	8,573.73	89.7149
8,876.95	92.2194	8,876.95	84.4313	8,876.95	92.6185	8,876.95	84.0377	8,876.95	72.9733	8,876.95	89.1175
9,188.96	90.9434	9,188.96	84.9595	9,188.96	92.9943	9,188.96	83.5272	9,188.96	71.0261	9,188.96	89.0532
9,514.16	90.9618	9,514.16	85.1871	9,514.16	93.8844	9,514.16	84.2031	9,514.16	73.0889	9,514.16	89.7505
9,849.61	90.3646	9,849.61	85.9503	9,849.61	94.1089	9,849.61	85.0093	9,849.61	72.9099	9,849.61	89.9498
10,196.8	90.6268	10,196.8	85.431	10,196.8	93.4862	10,196.8	85.3833	10,196.8	72.8203	10,196.8	89.5879
10,555.7	89.9701	10,555.7	85.0911	10,555.7	92.703	10,555.7	85.3275	10,555.7	72.5483	10,555.7	88.9584
10,927.7	89.001	10,927.7	85.085	10,927.7	92.3577	10,927.7	85.9263	10,927.7	74.3633	10,927.7	88.7269
11,313	88.4677	11,313	84.8641	11,313	91.6786	11,313	86.0767	11,313	75.8489	11,313	88.2801
11,712.9	87.9964	11,712.9	84.2009	11,712.9	91.4507	11,712.9	86.5404	11,712.9	75.9189	11,712.9	88.1758
12,126	88.7791	12,126	84.2729	12,126	92.1292	12,126	86.1729	12,126	75.1892	12,126	88.5776
12,553.7	90.1333	12,553.7	84.3174	12,553.7	93.3575	12,553.7	85.7843	12,553.7	70.7664	12,553.7	89.4474
12,996.1	89.9239	12,996.1	84.5233	12,996.1	93.8622	12,996.1	85.3994	12,996.1	68.7543	12,996.1	89.7102
13,454.6	90.7693	13,454.6	84.3877	13,454.6	93.5175	13,454.6	85.1224	13,454.6	71.0686	13,454.6	89.5481
13,929.2	91.0455	13,929.2	84.181	13,929.2	92.8861	13,929.2	85.2974	13,929.2	71.9767	13,929.2	89.2031
14,419.9	90.8832	14,419.9	83.9972	14,419.9	92.3469	14,419.9	85.7732	14,419.9	72.4534	14,419.9	88.9204
14,928.2	89.5395	14,928.2	83.1092	14,928.2	92.0389	14,928.2	85.6387	14,928.2	71.834	14,928.2	88.4546
15,455.6	87.55	15,455.6	81.9153	15,455.6	91.9257	15,455.6	85.3752	15,455.6	70.7042	15,455.6	88.0414
16,000.5	87.5243	16,000.5	81.6804	16,000.5	91.541	16,000.5	84.8027	16,000.5	70.8383	16,000.5	87.6624
16,564.5	88.6616	16,564.5	81.9785	16,564.5	91.053	16,564.5	84.4584	16,564.5	69.8137	16,564.5	87.4394
17,148.9	88.1747	17,148.9	81.5511	17,148.9	91.1899	17,148.9	83.5682	17,148.9	66.6584	17,148.9	87.2785
17,752.4	88.3812	17,752.4	81.2774	17,752.4	91.6173	17,752.4	83.4433	17,752.4	64.1924	17,752.4	87.5661
18,379.4	88.1702	18,379.4	82.3099	18,379.4	91.6402	18,379.4	82.6379	18,379.4	64.4444	18,379.4	87.4745
19,026.9	88.2694	19,026.9	82.8537	19,026.9	91.2292	19,026.9	81.1251	19,026.9	61.7421	19,026.9	87.0504
19,697.8	89.0294	19,697.8	82.9515	19,697.8	90.4022	19,697.8	79.5529	19,697.8	58.0824	19,697.8	86.4853
19,999.5	88.6472	19,999.5	82.8651	19,999.5	89.8176	19,999.5	79.1778	19,999.5	60.4616	19,999.5	85.9872
