"Horizontal Reflections"							
"Front"		"Side"		"Rear"		"Total Horizontal Reflection"	
"Frequency [Hz]"	"Sound Pessure Level [dB]  / [2.83V 1m] "	"Frequency [Hz]"	"Sound Pessure Level [dB]  / [2.83V 1m] "	"Frequency [Hz]"	"Sound Pessure Level [dB]  / [2.83V 1m] "	"Frequency [Hz]"	"Sound Pessure Level [dB]  / [2.83V 1m] "
20.5078	51.1703	20.5078	52.0588	20.5078	51.765	20.5078	51.7413
21.9727	57.5622	21.9727	57.527	21.9727	55.0355	21.9727	56.3985
23.4375	57.8372	23.4375	57.9912	23.4375	57.8211	23.4375	57.8721
24.9023	57.8214	24.9023	57.712	24.9023	57.8094	24.9023	57.7849
26.3672	59.6443	26.3672	59.5751	26.3672	59.8937	26.3672	59.7591
27.832	62.6199	27.832	62.5454	27.832	62.8704	27.832	62.734
29.2969	64.1914	29.2969	63.824	29.2969	63.0924	29.2969	63.5337
30.7617	67.7247	30.7617	67.4008	30.7617	66.5715	30.7617	67.0543
32.2266	69.8405	32.2266	69.6078	32.2266	69.0084	32.2266	69.3514
33.6914	71.8172	33.6914	71.5932	33.6914	71.0997	33.6914	71.3869
35.1562	73.4735	35.1562	73.2933	35.1562	72.9189	35.1562	73.137
36.6211	75.1298	36.6211	74.9853	36.6211	74.5828	36.6211	74.8074
38.0859	76.8887	38.0859	76.7585	38.0859	76.423	38.0859	76.6114
39.5508	78.3867	39.5508	78.2672	39.5508	77.9516	39.5508	78.1279
41.0156	79.14	41.0156	79.1555	41.0156	79.5122	41.0156	79.3445
42.4805	80.0142	42.4805	79.8552	42.4805	79.4766	42.4805	79.6923
43.9453	81.3976	43.9453	81.2501	43.9453	80.9017	43.9453	81.1
45.4102	82.4956	45.4102	82.3648	45.4102	82.117	45.4102	82.2623
46.875	83.6191	46.875	83.4739	46.875	83.1767	46.875	83.3492
48.3398	84.7667	48.3398	84.5993	48.3398	84.2463	48.3398	84.451
51.2695	86.5981	51.2695	86.4458	51.2695	86.0966	51.2695	86.2963
52.7344	87.5289	52.7344	87.3773	52.7344	87.0428	52.7344	87.2351
54.1992	88.4111	54.1992	88.2615	54.1992	87.959	54.1992	88.135
55.6641	89.326	55.6641	89.1691	55.6641	88.8558	55.6641	89.0387
58.5938	90.8825	58.5938	90.7021	58.5938	90.3255	58.5938	90.5447
60.0586	91.6062	60.0586	91.4251	60.0586	91.0326	60.0586	91.2599
62.9883	92.9839	62.9883	92.7812	62.9883	92.3394	62.9883	92.596
64.4531	93.5841	64.4531	93.379	64.4531	92.9311	64.4531	93.1912
67.3828	94.5604	67.3828	94.3607	67.3828	93.936	67.3828	94.1833
68.8477	94.9782	68.8477	94.785	68.8477	94.3701	68.8477	94.6112
71.7773	95.5619	71.7773	95.3993	71.7773	95.0868	71.7773	95.2705
74.707	96.1164	74.707	95.949	74.707	95.6461	74.707	95.8261
77.6367	96.5922	77.6367	96.4137	77.6367	96.0918	77.6367	96.2835
79.1016	96.8162	79.1016	96.6264	79.1016	96.2817	79.1016	96.487
82.0312	97.1541	82.0312	96.9467	82.0312	96.5677	82.0312	96.7938
84.9609	97.4054	84.9609	97.2259	84.9609	96.8791	84.9609	97.0833
87.8906	97.5914	87.8906	97.4356	87.8906	97.2333	87.8906	97.3615
90.8203	97.8505	90.8203	97.6839	90.8203	97.4972	90.8203	97.62
95.2148	98.2959	95.2148	98.0353	95.2148	97.5764	95.2148	97.854
98.1445	98.285	98.1445	98.0708	98.1445	97.7437	98.1445	97.9454
101.074	98.2194	101.074	98.0187	101.074	97.7314	101.074	97.9106
105.469	98.1698	105.469	97.9472	105.469	97.7267	105.469	97.8776
108.398	98.1535	108.398	97.8606	108.398	97.5327	108.398	97.7515
112.793	98.162	112.793	97.856	112.793	97.3817	112.793	97.6769
117.188	97.9228	117.188	97.5997	117.188	97.2364	117.188	97.4793
120.117	97.8581	120.117	97.4676	120.117	96.953	120.117	97.2872
124.512	97.7229	124.512	97.3307	124.512	96.6724	124.512	97.0811
128.906	97.292	128.906	96.9743	128.906	96.451	128.906	96.7736
133.301	97.0363	133.301	96.7104	133.301	96.2435	133.301	96.5393
139.16	96.8463	139.16	96.4884	139.16	96.0172	139.16	96.3221
143.555	96.7301	143.555	96.3284	143.555	95.8031	143.555	96.1453
147.949	96.5621	147.949	96.1475	147.949	95.5671	147.949	95.9405
153.809	96.0933	153.809	95.7467	153.809	95.3443	153.809	95.612
159.668	95.9245	159.668	95.53	159.668	95.1361	159.668	95.4099
165.527	95.7393	165.527	95.3099	165.527	94.9353	165.527	95.207
171.387	95.6084	171.387	95.1358	171.387	94.6443	171.387	94.985
177.246	95.4471	177.246	94.925	177.246	94.4108	177.246	94.7743
183.105	95.2499	183.105	94.7138	183.105	94.0483	183.105	94.4936
188.965	94.863	188.965	94.359	188.965	93.9342	188.965	94.2479
196.289	94.7859	196.289	94.2012	196.289	93.6307	196.289	94.0377
203.613	94.651	203.613	93.9996	203.613	93.2471	203.613	93.7654
210.938	94.3807	210.938	93.7879	210.938	93.067	210.938	93.5547
218.262	94.1957	218.262	93.5969	218.262	93.1864	218.262	93.5142
225.586	94.3835	225.586	93.6809	225.586	93.1128	225.586	93.5461
232.91	94.4085	232.91	93.6212	232.91	92.932	232.91	93.4493
241.699	94.3713	241.699	93.6485	241.699	92.8072	241.699	93.3902
250.488	94.4941	250.488	93.6468	250.488	92.7495	250.488	93.3937
259.277	94.4185	259.277	93.4019	259.277	92.5665	259.277	93.2198
268.066	94.2743	268.066	93.2582	268.066	92.1933	268.066	92.9732
276.855	94.3325	276.855	93.3784	276.855	92.5235	276.855	93.1714
287.109	94.1512	287.109	93.323	287.109	92.4103	287.109	93.058
297.363	94.5618	297.363	93.2679	297.363	92.1864	297.363	93.0504
307.617	94.4104	307.617	93.344	307.617	91.9933	307.617	92.9489
319.336	94.466	319.336	93.0989	319.336	91.7856	319.336	92.8033
329.59	94.1741	329.59	93.102	329.59	91.2313	329.59	92.4959
341.309	94.2557	341.309	92.7987	341.309	91.6148	341.309	92.5832
353.027	94.1507	353.027	92.9958	353.027	90.9424	353.027	92.3428
366.211	94.2192	366.211	92.9145	366.211	90.8889	366.211	92.3167
379.395	94.2512	379.395	92.9477	379.395	90.9809	379.395	92.372
392.578	93.7356	392.578	92.5281	392.578	90.4624	392.578	91.886
405.762	93.7055	405.762	92.0604	405.762	90.1827	405.762	91.6235
420.41	93.7668	420.41	92.198	420.41	89.675	420.41	91.5027
435.059	93.6031	435.059	92.1286	435.059	89.7288	435.059	91.446
451.172	93.9176	451.172	92.2363	451.172	88.8704	451.172	91.3066
465.82	94.6006	465.82	92.3092	465.82	88.9014	465.82	91.5939
483.398	95.2023	483.398	93.341	483.398	89.475	483.398	92.3335
499.512	95.1346	499.512	93.54	499.512	90.4949	499.512	92.6795
517.09	94.3765	517.09	92.9003	517.09	90.0284	517.09	92.0563
536.133	94.2321	536.133	92.5418	536.133	88.9445	536.133	91.5469
555.176	93.974	555.176	92.9636	555.176	88.0978	555.176	91.3853
574.219	94.1153	574.219	93.1409	574.219	88.8312	574.219	91.6948
594.727	94.3539	594.727	93.1221	594.727	89.1742	594.727	91.8648
615.234	94.8708	615.234	93.6775	615.234	88.8853	615.234	92.1827
637.207	94.5183	637.207	93.8942	637.207	89.2746	637.207	92.2476
659.18	94.4466	659.18	93.4991	659.18	89.9884	659.18	92.2774
682.617	94.9105	682.617	93.54	682.617	89.6163	682.617	92.3379
707.52	94.4869	707.52	92.9719	707.52	88.9993	707.52	91.8075
732.422	93.6408	732.422	91.8317	732.422	88.1595	732.422	90.8587
757.324	92.582	757.324	90.5182	757.324	86.5721	757.324	89.5667
785.156	91.3206	785.156	88.629	785.156	84.786	785.156	87.9588
811.523	91.6245	811.523	88.9208	811.523	85.1867	811.523	88.2836
840.82	93.987	840.82	90.836	840.82	86.8167	840.82	90.3233
870.117	95.6773	870.117	92.2055	870.117	87.7214	870.117	91.7393
900.879	96.0153	900.879	93.1541	900.879	88.0498	900.879	92.2736
933.105	95.2709	933.105	91.6778	933.105	87.2243	933.105	91.2768
965.332	96.5942	965.332	93.2253	965.332	87.5479	965.332	92.4833
1,000.49	96.5203	1,000.49	93.0582	1,000.49	87.9326	1,000.49	92.4606
1,035.64	96.1954	1,035.64	92.9362	1,035.64	86.3799	1,035.64	92.0008
1,072.27	95.7855	1,072.27	92.1513	1,072.27	85.8705	1,072.27	91.4507
1,108.89	95.6374	1,108.89	92.0391	1,108.89	85.4856	1,108.89	91.2806
1,148.44	95.1027	1,148.44	91.621	1,148.44	84.1236	1,148.44	90.6799
1,189.45	94.5458	1,189.45	91.5572	1,189.45	84.2179	1,189.45	90.3774
1,230.47	92.9879	1,230.47	89.9038	1,230.47	82.4185	1,230.47	88.7546
1,274.41	92.9146	1,274.41	89.3721	1,274.41	82.003	1,274.41	88.4788
1,319.82	93.9893	1,319.82	90.2237	1,319.82	82.5848	1,319.82	89.422
1,366.7	95.3457	1,366.7	90.7294	1,366.7	83.5549	1,366.7	90.4691
1,413.57	95.3125	1,413.57	90.0714	1,413.57	81.7633	1,413.57	90.0961
1,463.38	94.0315	1,463.38	88.2316	1,463.38	78.1473	1,463.38	88.5204
1,516.11	92.756	1,516.11	87.1401	1,516.11	75.6636	1,516.11	87.2428
1,568.85	94.6486	1,568.85	90.2468	1,568.85	81.4624	1,568.85	89.7082
1,624.51	95.8992	1,624.51	91.5784	1,624.51	82.581	1,624.51	90.9742
1,681.64	95.9697	1,681.64	91.173	1,681.64	81.3232	1,681.64	90.807
1,741.7	95.709	1,741.7	90.634	1,741.7	80.8465	1,741.7	90.4513
1,803.22	94.3685	1,803.22	89.1912	1,803.22	79.1949	1,803.22	89.0639
1,866.21	92.7085	1,866.21	87.2751	1,866.21	76.8752	1,866.21	87.2982
1,932.13	91.5978	1,932.13	85.8203	1,932.13	74.7624	1,932.13	86.0511
1,999.51	92.32	1,999.51	86.1908	1,999.51	74.3727	1,999.51	86.6439
2,069.82	92.6095	2,069.82	86.3727	2,069.82	74.9133	2,069.82	86.9149
2,143.07	91.9512	2,143.07	85.6828	2,143.07	73.5986	2,143.07	86.2285
2,219.24	90.221	2,219.24	84.3731	2,219.24	72.1163	2,219.24	84.6123
2,296.88	89.3028	2,296.88	83.5591	2,296.88	70.6833	2,296.88	83.7074
2,378.91	89.3613	2,378.91	83.4478	2,378.91	69.5719	2,378.91	83.6936
2,462.4	90.0886	2,462.4	83.7179	2,462.4	68.5949	2,462.4	84.2758
2,548.83	89.4704	2,548.83	82.822	2,548.83	68.0289	2,548.83	83.5921
2,639.65	88.1732	2,639.65	81.8331	2,639.65	66.6552	2,639.65	82.3675
2,731.93	88.5901	2,731.93	81.945	2,731.93	66.1178	2,731.93	82.6991
2,828.61	90.2345	2,828.61	83.5041	2,828.61	67.7941	2,828.61	84.3241
2,928.22	91.814	2,928.22	85.2383	2,928.22	69.6834	2,928.22	85.9434
3,030.76	92.831	3,030.76	86.2048	3,030.76	71.8084	3,030.76	86.9643
3,137.7	93.1011	3,137.7	86.957	3,137.7	73.1305	3,137.7	87.3704
3,249.02	92.6659	3,249.02	87.0172	3,249.02	74.3603	3,249.02	87.1047
3,363.28	92.436	3,363.28	87.2289	3,363.28	75.1521	3,363.28	87.0308
3,481.93	92.1575	3,481.93	87.926	3,481.93	76.877	3,481.93	87.1397
3,604.98	91.9757	3,604.98	89.4907	3,604.98	78.7633	3,604.98	87.732
3,732.42	92.3394	3,732.42	90.262	3,732.42	79.4669	3,732.42	88.2927
3,864.26	91.8252	3,864.26	89.8344	3,864.26	79.4688	3,864.26	87.8541
4,000.49	92.8359	4,000.49	89.1719	4,000.49	78.2138	4,000.49	88.049
4,141.11	93.5594	4,141.11	88.5694	4,141.11	77.6681	4,141.11	88.2736
4,287.6	93.9528	4,287.6	87.2354	4,287.6	76.0128	4,287.6	88.137
4,438.48	93.4221	4,438.48	86.1109	4,438.48	74.1133	4,438.48	87.44
4,595.21	91.8366	4,595.21	84.8286	4,595.21	73.1115	4,595.21	85.9333
4,756.35	92.6557	4,756.35	84.9676	4,756.35	72.6394	4,756.35	86.5828
4,924.8	94.0033	4,924.8	85.5102	4,924.8	73.3987	4,924.8	87.7752
5,097.66	93.2934	5,097.66	84.3226	5,097.66	71.5891	5,097.66	86.9709
5,277.83	92.6863	5,277.83	83.6974	5,277.83	71.3297	5,277.83	86.3666
5,463.87	92.0054	5,463.87	82.1287	5,463.87	71.6359	5,463.87	85.5823
5,657.23	91.6103	5,657.23	80.6805	5,657.23	70.8867	5,657.23	85.0608
5,856.45	91.1091	5,856.45	78.9509	5,856.45	68.7255	5,856.45	84.4212
6,062.99	91.6888	6,062.99	79.4129	6,062.99	67.1678	6,062.99	84.9676
6,276.86	91.7095	6,276.86	78.9325	6,276.86	66.6129	6,276.86	84.9468
6,498.05	92.706	6,498.05	81.1363	6,498.05	67.3329	6,498.05	86.037
6,726.56	93.1376	6,726.56	82.3161	6,726.56	67.5572	6,726.56	86.5399
6,963.87	93.4816	6,963.87	83.8946	6,963.87	68.444	6,963.87	87.0351
7,209.96	94.084	7,209.96	84.6993	7,209.96	71.0334	7,209.96	87.6835
7,464.84	93.6465	7,464.84	84.0098	7,464.84	69.9609	7,464.84	87.2049
7,727.05	94.939	7,727.05	85.6738	7,727.05	68.7713	7,727.05	88.5301
7,999.51	94.5085	7,999.51	85.8333	7,999.51	70.233	7,999.51	88.2025
8,282.23	94.2989	8,282.23	85.4247	8,282.23	71.2041	8,282.23	87.9731
8,573.73	93.2622	8,573.73	84.6407	8,573.73	70.3167	8,573.73	86.978
8,876.95	92.6185	8,876.95	84.0377	8,876.95	68.5437	8,876.95	86.3296
9,188.96	92.9943	9,188.96	83.5272	9,188.96	67.4401	9,188.96	86.5607
9,514.16	93.8844	9,514.16	84.2031	9,514.16	68.4503	9,514.16	87.4225
9,849.61	94.1089	9,849.61	85.0093	9,849.61	68.2586	9,849.61	87.7261
10,196.8	93.4862	10,196.8	85.3833	10,196.8	68.2465	10,196.8	87.2705
10,555.7	92.703	10,555.7	85.3275	10,555.7	68.1842	10,555.7	86.6325
10,927.7	92.3577	10,927.7	85.9263	10,927.7	69.7353	10,927.7	86.5159
11,313	91.6786	11,313	86.0767	11,313	70.5974	11,313	86.0724
11,712.9	91.4507	11,712.9	86.5404	11,712.9	70.536	11,712.9	86.0506
12,126	92.1292	12,126	86.1729	12,126	69.6807	12,126	86.4094
12,553.7	93.3575	12,553.7	85.7843	12,553.7	66.7489	12,553.7	87.2344
12,996.1	93.8622	12,996.1	85.3994	12,996.1	63.883	12,996.1	87.5646
13,454.6	93.5175	13,454.6	85.1224	13,454.6	65.853	13,454.6	87.2383
13,929.2	92.8861	13,929.2	85.2974	13,929.2	66.7937	13,929.2	86.7625
14,419.9	92.3469	14,419.9	85.7732	14,419.9	67.1546	14,419.9	86.4493
14,928.2	92.0389	14,928.2	85.6387	14,928.2	66.2337	14,928.2	86.1796
15,455.6	91.9257	15,455.6	85.3752	15,455.6	65.4722	15,455.6	86.0269
16,000.5	91.541	16,000.5	84.8027	16,000.5	65.1114	16,000.5	85.5981
16,564.5	91.053	16,564.5	84.4584	16,564.5	63.9082	16,564.5	85.1406
17,148.9	91.1899	17,148.9	83.5682	17,148.9	60.8335	17,148.9	85.0453
17,752.4	91.6173	17,752.4	83.4433	17,752.4	58.7599	17,752.4	85.365
18,379.4	91.6402	18,379.4	82.6379	18,379.4	58.9093	18,379.4	85.2514
19,026.9	91.2292	19,026.9	81.1251	19,026.9	56.5417	19,026.9	84.6877
19,697.8	90.4022	19,697.8	79.5529	19,697.8	53.1483	19,697.8	83.7746
19,999.5	89.8176	19,999.5	79.1778	19,999.5	57.7767	19,999.5	83.217
