Freq[Hz]     dBSPL  Phase[Deg]
5.00000     13.022  -145.509
5.07273     13.520  -145.825
5.14651     14.018  -146.146
5.22137     14.516  -146.471
5.29732     15.014  -146.801
5.37437     15.512  -147.137
5.45254     16.010  -147.476
5.53185     16.508  -147.821
5.61231     17.005  -148.171
5.69394     17.503  -148.526
5.77676     18.001  -148.886
5.86079     18.499  -149.252
5.94604     18.997  -149.622
6.03252     19.495  -149.998
6.12027     19.993  -150.380
6.20929     20.491  -150.767
6.29961     20.989  -151.160
6.39124     21.487  -151.558
6.48420     21.985  -151.963
6.57851     22.483  -152.373
6.67420     22.981  -152.789
6.77128     23.479  -153.211
6.86977     23.977  -153.639
6.96969     24.475  -154.074
7.07107     24.972  -154.515
7.17392     25.470  -154.962
7.27827     25.968  -155.416
7.38413     26.466  -155.876
7.49154     26.964  -156.343
7.60050     27.462  -156.817
7.71105     27.960  -157.298
7.82321     28.458  -157.785
7.93701     28.956  -158.280
8.05245     29.454  -158.782
8.16958     29.952  -159.291
8.28841     30.450  -159.808
8.40896     30.948  -160.332
8.53128     31.446  -160.864
8.65537     31.944  -161.404
8.78126     32.442  -161.951
8.90899     32.939  -162.507
9.03857     33.437  -163.070
9.17004     33.935  -163.642
9.30342     34.433  -164.222
9.43874     34.931  -164.810
9.57603     35.429  -165.407
9.71532     35.927  -166.013
9.85663     36.425  -166.628
10.0000     36.923  -167.251
10.1455     37.421  -167.884
10.2930     37.919  -168.525
10.4427     38.417  -169.176
10.5946     38.915  -169.837
10.7487     39.413  -170.507
10.9051     39.911  -171.187
11.0637     40.409  -171.876
11.2246     40.906  -172.576
11.3879     41.404  -173.286
11.5535     41.902  -174.007
11.7216     42.400  -174.737
11.8921     42.898  -175.479
12.0650     43.396  -176.231
12.2405     43.894  -176.994
12.4186     44.392  -177.768
12.5992     44.890  -178.554
12.7825     45.388  -179.351
12.9684     45.886   179.841
13.1570     46.384   179.021
13.3484     46.882   178.189
13.5426     47.380   177.344
13.7395     47.878   176.488
13.9394     48.376   175.619
14.1421     48.873   174.737
14.3478     49.371   173.842
14.5565     49.869   172.935
14.7683     50.367   172.014
14.9831     50.865   171.080
15.2010     51.363   170.132
15.4221     51.861   169.171
15.6464     52.359   168.196
15.8740     52.857   167.206
16.1049     53.355   166.202
16.3392     53.853   165.183
16.5768     54.351   164.150
16.8179     54.849   163.101
17.0626     55.347   162.038
17.3107     55.845   160.958
17.5625     56.343   159.863
17.8180     56.840   158.753
18.0771     57.338   157.626
18.3401     57.836   156.482
18.6068     58.162   155.397
18.8775     58.500   154.396
19.1521     58.856   153.464
19.4306     59.232   152.598
19.7133     59.647   151.787
20.0000     60.099   150.949
20.2909     60.586   150.028
20.5860     61.106   148.976
20.8855     61.632   147.900
21.1893     62.183   146.580
21.4975     62.745   145.046
21.8102     63.313   143.320
22.1274     63.882   141.418
22.4492     64.449   139.364
22.7758     65.014   137.177
23.1071     65.576   134.873
23.4432     66.137   132.454
23.7841     66.761   129.497
24.1301     67.384   126.440
24.4811     68.004   123.287
24.8372     68.622   120.039
25.1984     69.238   116.697
25.5649     69.850   113.261
25.9368     70.460   109.732
26.3141     71.066   106.110
26.6968     71.689   101.911
27.0851     72.313    97.540
27.4791     72.931    93.072
27.8788     73.543    88.504
28.2843     74.149    83.839
28.6957     74.748    79.078
29.1131     75.338    74.221
29.5365     75.921    68.995
29.9661     76.496    63.462
30.4020     77.060    57.842
30.8442     77.610    52.123
31.2929     78.148    46.321
31.7480     78.671    40.439
32.2098     79.179    34.485
32.6783     79.663    28.042
33.1536     80.130    21.526
33.6359     80.580    14.962
34.1251     81.009     8.352
34.6215     81.417     1.711
35.1250     81.807    -4.947
35.6359     82.165   -11.962
36.1543     82.503   -18.995
36.6802     82.822   -26.015
37.2137     83.121   -33.011
37.7550     83.402   -39.974
38.3041     83.660   -47.017
38.8613     83.895   -54.205
39.4265     84.114   -61.331
40.0000     84.319   -68.396
40.5818     84.512   -75.393
41.1721     84.689   -82.390
41.7710     84.849   -89.524
42.3785     84.998   -96.580
42.9949     85.140  -103.563
43.6203     85.275  -110.474
44.2548     85.400  -117.431
44.8985     85.515  -124.446
45.5515     85.626  -131.394
46.2141     85.733  -138.277
46.8863     85.837  -145.101
47.5683     85.932  -152.092
48.2602     86.026  -159.022
48.9621     86.118  -165.895
49.6743     86.210  -172.715
50.3968     86.298  -179.677
51.1299     86.385   173.365
51.8736     86.471   166.453
52.6281     86.551   159.459
53.3936     86.643   152.569
54.1702     86.729   145.550
54.9581     86.816   138.564
55.7575     86.904   131.580
56.5685     86.992   124.407
57.3914     87.080   117.265
58.2261     87.169   110.154
59.0730     87.258   102.928
59.9323     87.349    95.616
60.8040     87.442    88.329
61.6884     87.536    81.010
62.5857     87.631    73.483
63.4960     87.727    65.975
64.4196     87.823    58.485
65.3566     87.919    50.737
66.3073     88.016    42.997
67.2717     88.114    35.275
68.2502     88.212    27.302
69.2429     88.310    19.308
70.2501     88.410    11.323
71.2719     88.507     3.060
72.3086     88.605    -5.211
73.3603     88.702   -13.509
74.4274     88.796   -22.072
75.5099     88.890   -30.627
76.6083     88.982   -39.293
77.7226     89.070   -48.128
78.8531     89.160   -56.958
80.0000     89.245   -66.012
81.1636     89.329   -75.122
82.3442     89.412   -84.300
83.5419     89.492   -93.678
84.7570     89.572  -103.051
85.9899     89.650  -112.651
87.2406     89.727  -122.292
88.5096     89.804  -132.060
89.7970     89.880  -141.963
91.1031     89.957  -151.923
92.4282     90.034  -162.094
93.7726     90.112  -172.273
95.1366     90.190   177.273
96.5204     90.268   166.821
97.9243     90.347   156.116
99.3486     90.425   145.379
100.794     90.499   134.567
102.260     90.572   123.729
103.747     90.646   112.507
105.256     90.720   101.198
106.787     90.792    89.656
108.340     90.862    78.067
109.916     90.928    66.232
111.515     90.993    54.355
113.137     91.054    42.249
114.783     91.113    30.065
116.452     91.169    17.707
118.146     91.223     5.204
119.865     91.275    -7.406
121.608     91.325   -20.244
123.377     91.374   -33.168
125.171     91.421   -46.322
126.992     91.465   -59.627
128.839     91.508   -73.060
130.713     91.546   -86.765
132.615     91.583  -100.593
134.543     91.614  -114.633
136.500     91.640  -128.930
138.486     91.671  -143.223
140.500     91.694  -157.793
142.544     91.706  -172.725
144.617     91.724   172.330
146.721     91.741   157.246
148.855     91.750   141.824
151.020     91.759   126.231
153.217     91.768   110.488
155.445     91.778    94.589
157.706     91.788    78.433
160.000     91.796    62.057
162.327     91.803    45.469
164.688     91.817    28.804
167.084     91.824    11.855
169.514     91.822    -5.441
171.980     91.818   -22.930
174.481     91.819   -40.515
177.019     91.817   -58.299
179.594     91.805   -76.389
182.206     91.785   -94.791
184.856     91.761  -113.425
187.545     91.737  -132.208
190.273     91.699  -151.332
193.041     91.653  -170.680
195.849     91.597   169.765
198.697     91.530   149.946
201.587     91.463   129.972
204.520     91.402   109.839
207.494     91.353    89.512
210.512     91.314    68.888
213.574     91.291    48.011
216.681     91.282    26.925
219.833     91.275     5.457
223.030     91.263   -16.377
226.274     91.250   -38.461
229.565     91.237   -60.767
232.905     91.226   -83.300
236.292     91.222  -106.082
239.729     91.224  -129.215
243.216     91.235  -152.666
246.754     91.253  -176.528
250.343     91.274   159.150
253.984     91.296   134.422
257.678     91.315   109.304
261.426     91.329    83.696
265.229     91.345    57.810
269.087     91.371    31.620
273.001     91.416     5.092
276.972     91.479   -21.825
281.000     91.551   -49.217
285.088     91.611   -77.125
289.234     91.645  -105.341
293.441     91.649  -133.719
297.709     91.629  -162.114
302.040     91.622   168.710
306.433     91.687   137.567
310.890     91.772   111.985
315.412     91.879    81.998
320.000     91.963    51.237
324.655     91.994    19.774
329.377     91.962   -12.205
334.168     91.884   -44.675
339.028     91.787   -77.419
343.959     91.704  -110.442
348.962     91.658  -143.839
354.038     91.669  -177.791
359.188     91.740   147.443
364.412     91.863   111.675
369.713     92.016    74.897
375.090     92.161    36.977
380.546     92.261    -2.105
386.081     92.295   -42.082
391.697     92.264   -82.893
397.394     92.183  -124.494
403.175     92.074  -166.734
409.039     91.961   150.146
414.989     91.872   106.079
421.025     91.825    61.069
427.149     91.819    15.088
433.362     91.827   -31.761
439.665     91.815   -79.425
446.060     91.767  -127.511
452.548     91.689  -175.990
459.131     91.601   134.802
465.809     91.515    84.447
472.584     91.441    32.592
479.458     91.386   -20.707
486.432     91.353   -75.428
493.507     91.330  -131.343
500.686     91.276   171.835
507.968     91.102   103.319
515.357     90.903    55.830
522.853     90.615    -4.112
530.458     90.308   -65.474
538.174     90.031  -128.057
546.002     89.796   168.601
553.943     89.569   104.795
562.001     89.304    40.592
570.175     88.991   -24.355
578.469     88.661   -90.412
586.883     88.341  -157.412
595.419     87.999   135.380
604.080     87.608    69.042
612.866     87.159     3.685
621.780     86.635   -61.799
630.824     86.024  -128.595
640.000     85.433   162.670
649.309     85.013    92.010
658.753     84.849    20.047
668.335     84.901   -52.570
678.056     85.053  -125.567
687.919     85.215   160.718
697.925     85.346    85.770
708.077     85.425    -1.089
718.376     85.476   -68.823
728.825     85.531  -149.029
739.426     85.619   129.229
750.181     85.688    46.494
761.093     85.609   -37.233
772.163     85.302  -122.772
783.394     84.883   148.767
794.789     84.583    57.699
806.349     84.461   -34.078
818.078     84.281  -125.335
829.977     83.774   143.151
842.050     82.923    49.750
854.298     81.904   -46.138
866.724     80.828  -143.777
879.330     79.695   117.297
892.120     78.537    17.713
905.097     77.365   -81.039
918.262     75.931   177.026
931.618     74.604    87.882
945.169     73.552    -5.160
958.917     73.252   -95.857
972.864     73.404   173.840
987.015     73.359    77.372
1001.37     73.360   -31.682
1015.94     74.321  -149.517
1030.71     75.999    93.349
1045.71     77.193   -20.928
1060.92     77.466  -136.504
1076.35     76.754   102.417
1092.00     75.051   -25.454
1107.89     72.739  -153.630
1124.00     69.561    61.148
1140.35     66.618  -109.667
1156.94     66.925    75.473
1173.77     70.462   -89.765
1190.84     74.817   108.553
1208.16     78.764   -42.110
1225.73     81.694   175.697
1243.56     83.229    34.940
1261.65     84.128  -109.769
1280.00     85.349    93.264
1298.62     86.399   -59.170
1317.51     86.512   150.078
1336.67     86.090     6.764
1356.11     85.405  -157.358
1375.84     84.883    37.239
1395.85     84.498  -112.284
1416.15     83.617   104.537
1436.75     82.157   -45.567
1457.65     81.042   154.942
1478.85     80.951    -6.424
1500.36     81.812  -162.600
1522.19     83.462    17.009
1544.33     84.578  -142.613
1566.79     85.054    43.726
1589.58     85.302  -144.139
1612.70     85.136    28.727
1636.16     84.078  -161.219
1659.95     83.262     4.548
1684.10     82.520   166.078
1708.60     79.742   -31.950
1733.45     76.177   138.322
1758.66     72.692   -35.603
1784.24     70.085   167.530
1810.19     70.188     6.402
1836.52     72.685   168.649
1863.24     75.329   -40.282
1890.34     76.348   110.195
1917.83     77.172  -124.184
1945.73     78.539    14.075
1974.03     79.229   157.368
2002.74     79.394   -75.871
2031.87     79.223    48.627
2061.43     78.923   169.412
2091.41     78.955   -82.031
2121.83     78.482    21.937
2152.69     76.886   138.944
2184.01     74.988  -111.350
2215.77     73.728     0.219
2248.00     73.557   122.090
2280.70     74.124  -105.049
2313.87     76.533     6.708
2347.53     80.569   105.980
2381.68     83.528  -148.593
2416.32     85.442   -56.168
2451.46     87.300    24.143
2487.12     88.614    94.284
2523.30     89.509   156.264
2560.00     90.114  -129.558
2597.24     90.208   -55.478
2635.01     90.041    14.355
2673.34     89.725    63.786
2712.23     88.996   111.484
2751.68     88.190   159.122
2791.70     87.592  -139.076
2832.31     86.701   -80.317
2873.50     85.602   -31.310
2915.30     84.630     2.634
2957.70     83.988    36.630
3000.72     83.727    80.993
3044.37     83.134   109.616
3088.65     82.463   137.334
3133.58     81.774   146.838
3179.16     81.674   160.417
3225.40     81.779  -179.192
3272.31     81.782  -173.977
3319.91     81.614   176.326
3368.20     80.827   169.042
3417.19     80.236   168.433
3466.89     80.238   162.165
3517.32     81.175   131.242
3568.48     82.118   100.785
3620.39     82.272    76.008
3673.05     81.194    29.715
3726.47     79.280   -36.000
3780.67     77.345   -84.916
3835.67     74.710  -119.494
3891.46     73.360  -173.420
3948.06     74.624   127.645
4005.49     75.936    73.235
4063.75     78.281   -10.383
4122.86     80.810  -105.252
4182.82     81.329   152.005
4243.66     81.560    39.857
4305.39     81.686   -82.264
4368.01     80.734   145.157
4431.55     78.108    18.681
4496.01     74.109  -120.019
4561.40     69.872    91.166
4627.75     69.165   -56.043
4695.06     70.374   121.619
4763.35     71.600   -85.071
4832.64     74.108    79.533
4902.93     75.582  -118.277
4974.24     76.293    40.333
5046.60     78.529  -156.486
5120.00     80.996   -14.194
5194.47     81.834   120.451
5270.03     81.438   -96.245
5346.68     80.153    22.405
5424.45     80.050   151.886
5503.35     81.013   -96.350
5583.40     81.545   -17.809
5664.61     81.735    78.394
5747.01     81.149   146.726
5830.60     79.542  -148.372
5915.41     78.215   -93.079
6001.45     77.073   -56.439
6088.74     75.218   -10.446
6177.30     72.984    26.932
6267.15     72.640    78.487
6358.31     73.986    85.262
6450.80     74.730    83.067
6544.62     75.065    54.599
6639.82     76.467     7.442
6736.40     79.385   -54.061
6834.38     82.757  -125.746
6933.79     85.379   173.744
7034.64     86.345    85.861
7136.96     85.356    -1.025
7240.77     82.874   -97.141
7346.09     77.575   172.050
7452.94     74.036   102.071
7561.35     76.220    22.969
7671.33     77.857   -92.125
7782.91     77.157   136.722
7896.12     76.145    12.616
8010.97     76.547  -139.306
8127.49     78.089    61.703
8245.71     78.616  -119.112
8365.65     78.067    47.425
8487.33     76.720  -163.149
8610.78     75.807   -19.965
8736.03     73.793   113.025
8863.09     69.101  -124.007
8992.01     68.440    31.676
9122.80     74.993   151.025
9255.50     79.627  -171.894
9390.12     79.075  -142.707
9526.70     76.995  -130.211
9665.27     73.797  -163.803
9805.86     74.909   131.266
9948.49     79.046    64.697
10093.2     80.908    13.672
10240.0     81.808   -44.612
10388.9     80.496  -121.143
10540.1     74.567    80.739
10693.4     72.160  -138.288
10848.9     74.205    53.711
11006.7     75.126   -63.548
11166.8     77.538   153.576
11329.2     79.368   -15.732
11494.0     79.192   165.354
11661.2     79.456   -31.828
11830.8     80.815   105.803
12002.9     81.474  -143.362
12177.5     79.989   -60.900
12354.6     76.575     2.478
12534.3     72.455    44.413
12716.6     71.067    43.973
12901.6     73.073     8.399
13089.2     75.094   -39.338
13279.6     74.880   -82.424
13472.8     73.602  -118.346
13668.8     74.020  -162.885
13867.6     75.715   136.387
14069.3     78.043    39.191
14273.9     80.627   -94.121
14481.5     80.912   109.148
14692.2     78.612   -78.038
14905.9     73.951    79.636
15122.7     69.238  -117.141
15342.7     69.732    23.367
15565.8     71.869    96.154
15792.2     71.529   113.601
16021.9     70.570   114.128
16255.0     68.602   110.338
16491.4     67.015   112.517
16731.3     67.708    80.749
16974.7     64.545   -36.196
17221.6     62.813   119.380
17472.1     67.755   -95.384
17726.2     70.147    90.332
17984.0     69.489   -81.660
18245.6     69.714    88.743
18511.0     69.835  -144.710
18780.2     67.672   -48.503
19053.4     66.239    45.816
19330.5     67.152   101.589
19611.7     67.117   111.218
19897.0     66.410    94.018
20186.4     66.510    53.338
20480.0     66.739    -1.369
20777.9     66.744   -81.145
21080.1     66.719   170.701
21386.7     66.760    25.271
21697.8     66.708  -118.907
22013.4     66.399   -60.396
22333.6     66.091    -1.886
22658.4     65.783    56.634
22988.0     65.474   115.140
23322.4     65.166   173.646
23661.6     64.858  -127.837
24005.8     64.549   -69.332
24355.0     64.241   -10.825
24709.2     63.933    47.694
25068.6     63.624   106.206
25433.2     63.316   164.722
25803.2     63.008  -136.778
26178.5     62.700   -78.264
26559.3     62.391   -19.757
26945.6     62.083    38.756
27337.5     61.775    97.272
27735.2     61.466   155.773
28138.6     61.158  -145.713
28547.9     60.850   -87.204
28963.1     60.541   -28.688
29384.4     60.233    29.820
29811.8     59.925    88.332
30245.4     59.616   146.846
30685.3     59.308  -154.639
31131.7     59.000   -96.138
31584.5     58.691   -37.624
32043.9     58.383    20.889
32510.0     58.075    79.399
32982.8     57.766   137.918
33462.6     57.458  -163.577
33949.3     57.150  -105.063
34443.1     56.842   -46.552
34944.1     56.533    11.957
35452.4     56.225    70.465
35968.0     55.917   128.984
36491.2     55.608  -172.509
37022.0     55.300  -114.000
37560.5     54.992   -55.490
38106.8     54.683     3.025
38661.1     54.375    61.533
39223.4     54.067   120.048
39793.9     53.758   178.561
