Freq[Hz]     dBSPL  Phase[Deg]
5.00000     17.067  -154.105
5.07273     17.553  -154.442
5.14651     18.039  -154.783
5.22137     18.525  -155.129
5.29732     19.011  -155.481
5.37437     19.497  -155.837
5.45254     19.983  -156.198
5.53185     20.469  -156.565
5.61231     20.955  -156.937
5.69394     21.441  -157.315
5.77676     21.927  -157.698
5.86079     22.413  -158.087
5.94604     22.899  -158.481
6.03252     23.386  -158.881
6.12027     23.872  -159.287
6.20929     24.358  -159.699
6.29961     24.844  -160.116
6.39124     25.330  -160.540
6.48420     25.816  -160.970
6.57851     26.302  -161.406
6.67420     26.788  -161.849
6.77128     27.274  -162.298
6.86977     27.760  -162.753
6.96969     28.246  -163.215
7.07107     28.732  -163.684
7.17392     29.218  -164.160
7.27827     29.704  -164.643
7.38413     30.190  -165.132
7.49154     30.676  -165.629
7.60050     31.162  -166.133
7.71105     31.648  -166.644
7.82321     32.134  -167.163
7.93701     32.620  -167.689
8.05245     33.107  -168.223
8.16958     33.593  -168.765
8.28841     34.079  -169.315
8.40896     34.565  -169.872
8.53128     35.051  -170.438
8.65537     35.537  -171.012
8.78126     36.023  -171.594
8.90899     36.509  -172.185
9.03857     36.995  -172.784
9.17004     37.481  -173.392
9.30342     37.967  -174.009
9.43874     38.453  -174.635
9.57603     38.939  -175.270
9.71532     39.425  -175.914
9.85663     39.911  -176.568
10.0000     40.397  -177.231
10.1455     40.883  -177.904
10.2930     41.369  -178.586
10.4427     41.855  -179.279
10.5946     42.341  -179.981
10.7487     42.828   179.306
10.9051     43.314   178.583
11.0637     43.800   177.849
11.2246     44.286   177.105
11.3879     44.772   176.350
11.5535     45.258   175.584
11.7216     45.744   174.806
11.8921     46.230   174.018
12.0650     46.716   173.218
12.2405     47.202   172.406
12.4186     47.688   171.583
12.5992     48.174   170.747
12.7825     48.660   169.900
12.9684     49.146   169.040
13.1570     49.632   168.167
13.3484     50.118   167.282
13.5426     50.604   166.384
13.7395     51.090   165.473
13.9394     51.576   164.549
14.1421     52.063   163.611
14.3478     52.549   162.660
14.5565     53.035   161.694
14.7683     53.521   160.715
14.9831     54.007   159.722
15.2010     54.493   158.714
15.4221     54.979   157.691
15.6464     55.465   156.654
15.8740     55.951   155.601
16.1049     56.437   154.533
16.3392     56.923   153.450
16.5768     57.409   152.350
16.8179     57.895   151.235
17.0626     58.381   150.104
17.3107     58.867   148.956
17.5625     59.353   147.791
17.8180     59.839   146.610
18.0771     60.325   145.411
18.3401     60.811   144.195
18.6068     61.125   143.036
18.8775     61.452   141.960
19.1521     61.795   140.952
19.4306     62.160   140.009
19.7133     62.562   139.120
20.0000     63.003   138.203
20.2909     63.477   137.201
20.5860     63.986   136.067
20.8855     64.502   134.897
21.1893     65.043   133.483
21.4975     65.596   131.854
21.8102     66.154   130.033
22.1274     66.714   128.037
22.4492     67.271   125.889
22.7758     67.826   123.607
23.1071     68.379   121.209
23.4432     68.930   118.696
23.7841     69.539   115.676
24.1301     70.145   112.557
24.4811     70.750   109.342
24.8372     71.352   106.031
25.1984     71.952   102.627
25.5649     72.548    99.129
25.9368     73.142    95.538
26.3141     73.732    91.853
26.6968     74.338    87.624
27.0851     74.943    83.228
27.4791     75.543    78.735
27.8788     76.138    74.143
28.2843     76.726    69.453
28.6957     77.306    64.667
29.1131     77.879    59.786
29.5365     78.444    54.549
29.9661     79.000    49.018
30.4020     79.546    43.398
30.8442     80.078    37.680
31.2929     80.597    31.879
31.7480     81.102    25.998
32.2098     81.592    20.045
32.6783     82.058    13.618
33.1536     82.507     7.118
33.6359     82.938     0.571
34.1251     83.349    -6.023
34.6215     83.739   -12.647
35.1250     84.110   -19.289
35.6359     84.450   -26.278
36.1543     84.770   -33.286
36.6802     85.071   -40.280
37.2137     85.351   -47.250
37.7550     85.614   -54.187
38.3041     85.854   -61.203
38.8613     86.071   -68.363
39.4265     86.272   -75.460
40.0000     86.459   -82.497
40.5818     86.634   -89.464
41.1721     86.794   -96.434
41.7710     86.936  -103.541
42.3785     87.069  -110.571
42.9949     87.194  -117.527
43.6203     87.312  -124.411
44.2548     87.420  -131.347
44.8985     87.520  -138.344
45.5515     87.616  -145.275
46.2141     87.708  -152.140
46.8863     87.797  -158.947
47.5683     87.879  -165.940
48.2602     87.960  -172.870
48.9621     88.039  -179.743
49.6743     88.118   173.436
50.3968     88.196   166.451
51.1299     88.273   159.465
51.8736     88.349   152.524
52.6281     88.419   145.502
53.3936     88.503   138.554
54.1702     88.581   131.472
54.9581     88.660   124.423
55.7575     88.740   117.372
56.5685     88.821   110.100
57.3914     88.902   102.859
58.2261     88.983    95.649
59.0730     89.066    88.307
59.9323     89.149    80.866
60.8040     89.234    73.450
61.6884     89.320    66.000
62.5857     89.407    58.330
63.4960     89.493    50.677
64.4196     89.580    43.044
65.3566     89.667    35.155
66.3073     89.754    27.275
67.2717     89.842    19.412
68.2502     89.930    11.316
69.2429     90.019     3.201
70.2501     90.109    -4.905
71.2719     90.199   -13.263
72.3086     90.290   -21.627
73.3603     90.382   -30.014
74.4274     90.474   -38.643
75.5099     90.566   -47.265
76.6083     90.659   -55.991
77.7226     90.752   -64.879
78.8531     90.847   -73.761
80.0000     90.942   -82.870
81.1636     91.037   -92.036
82.3442     91.132  -101.276
83.5419     91.228  -110.731
84.7570     91.324  -120.181
85.9899     91.419  -129.883
87.2406     91.513  -139.631
88.5096     91.607  -149.520
89.7970     91.699  -159.562
91.1031     91.791  -169.664
92.4282     91.881  -179.995
93.7726     91.971   169.666
95.1366     92.057   159.045
96.5204     92.143   148.425
97.9243     92.228   137.556
99.3486     92.311   126.655
100.794     92.391   115.689
102.260     92.470   104.699
103.747     92.552    93.318
105.256     92.635    81.850
106.787     92.719    70.137
108.340     92.803    58.375
109.916     92.887    46.340
111.515     92.972    34.258
113.137     93.057    21.909
114.783     93.141     9.466
116.452     93.226    -3.187
118.146     93.310   -16.014
119.865     93.393   -28.971
121.608     93.475   -42.196
123.377     93.554   -55.520
125.171     93.631   -69.103
126.992     93.704   -82.847
128.839     93.774   -96.730
130.713     93.838  -110.896
132.615     93.899  -125.186
134.543     93.953  -139.692
136.500     94.000  -154.454
138.486     94.051  -169.211
140.500     94.090   175.754
142.544     94.117   160.360
144.617     94.148   144.950
146.721     94.176   129.402
148.855     94.193   113.515
151.020     94.208    97.454
153.217     94.222    81.240
155.445     94.235    64.866
157.706     94.246    48.228
160.000     94.256    31.365
162.327     94.265    14.287
164.688     94.282    -2.873
167.084     94.294   -20.323
169.514     94.301   -38.130
171.980     94.310   -56.143
174.481     94.327   -74.271
177.019     94.344   -92.617
179.594     94.353  -111.286
182.206     94.354  -130.279
184.856     94.351  -149.507
187.545     94.348  -168.876
190.273     94.330   171.429
193.041     94.306   151.525
195.849     94.275   131.417
198.697     94.237   111.029
201.587     94.200    90.447
204.520     94.171    69.647
207.494     94.150    48.586
210.512     94.133    27.163
213.574     94.124     5.440
216.681     94.124   -16.521
219.833     94.121   -38.878
223.030     94.113   -61.609
226.274     94.103   -84.599
229.565     94.095  -107.814
232.905     94.088  -131.245
236.292     94.087  -154.894
239.729     94.093  -178.849
243.216     94.113   156.924
246.754     94.144   132.315
250.343     94.182   107.240
253.984     94.224    81.727
257.678     94.266    55.760
261.426     94.303    29.183
265.229     94.340     2.179
269.087     94.377   -25.280
273.001     94.418   -53.189
276.972     94.462   -81.490
281.000     94.511  -110.175
285.088     94.562  -139.230
289.234     94.607  -168.510
293.441     94.626   162.062
297.709     94.588   132.701
302.040     94.510   102.950
306.433     94.471    72.047
310.890     94.477    47.102
315.412     94.507    18.305
320.000     94.539   -10.855
324.655     94.554   -40.427
329.377     94.549   -70.460
334.168     94.527  -101.127
339.028     94.496  -132.391
343.959     94.466  -164.303
348.962     94.440   163.066
354.038     94.415   129.621
359.188     94.388    95.311
364.412     94.355    60.190
369.713     94.316    24.472
375.090     94.268   -11.832
380.546     94.209   -48.694
386.081     94.149   -85.934
391.697     94.105  -123.638
397.394     94.083  -161.928
403.175     94.080   159.232
409.039     94.071   119.604
414.989     94.043    79.223
421.025     93.993    38.181
427.149     93.921    -3.586
433.362     93.825   -46.185
439.665     93.699   -89.892
446.060     93.555  -134.603
452.548     93.417   179.668
459.131     93.308   132.834
465.809     93.247    84.965
472.584     93.248    36.266
479.458     93.311   -12.987
486.432     93.428   -62.908
493.507     93.574  -113.682
500.686     93.704  -165.460
507.968     93.785   131.683
515.357     93.781    87.946
522.853     93.747    32.955
530.458     93.686   -23.037
538.174     93.606   -79.957
546.002     93.501  -137.758
553.943     93.358   163.475
562.001     93.170   103.729
570.175     92.949    43.008
578.469     92.722   -18.637
586.883     92.519   -81.020
595.419     92.358  -144.097
604.080     92.242   152.205
612.866     92.183    87.943
621.780     92.203    23.031
630.824     92.311   -42.728
640.000     92.499  -109.440
649.309     92.748  -177.295
658.753     93.032   113.430
668.335     93.328    42.438
678.056     93.627   -30.300
687.919     93.931  -104.765
697.925     94.240   179.109
708.077     94.557    91.158
718.376     94.765    23.131
728.825     94.924   -56.928
739.426     94.999  -138.397
750.181     95.011   138.734
761.093     94.984    54.655
772.163     94.917   -30.204
783.394     94.778  -115.709
794.789     94.538   158.072
806.349     94.213    71.014
818.078     93.872   -16.986
829.977     93.585  -105.722
842.050     93.383   165.019
854.298     93.278    75.084
866.724     93.292   -15.856
879.330     93.464  -108.295
892.120     93.774   157.725
905.097     94.145    62.106
918.262     94.526   -41.340
931.618     94.869  -135.571
945.169     95.223   122.116
958.917     95.566    17.850
972.864     95.879   -88.164
987.015     96.152   164.152
1001.37     96.388    54.828
1015.94     96.592   -55.906
1030.71     96.755  -167.923
1045.71     96.859    78.318
1060.92     96.918   -37.200
1076.35     97.017  -157.082
1092.00     97.218    80.243
1107.89     97.480   -35.714
1124.00     97.716  -158.615
1140.35     97.871    73.998
1156.94     97.988   -49.032
1173.77     98.131  -172.748
1190.84     98.300    52.851
1208.16     98.401   -81.472
1225.73     98.403   143.665
1243.56     98.367     8.293
1261.65     98.285  -127.051
1280.00     98.089    87.122
1298.62     97.848   -58.816
1317.51     97.628   155.801
1336.67     97.343    20.356
1356.11     96.817  -132.907
1375.84     96.359    70.985
1395.85     96.252   -74.389
1416.15     96.277   142.036
1436.75     96.185   -10.800
1457.65     95.998  -174.876
1478.85     95.901    19.379
1500.36     95.942  -136.580
1522.19     95.897    46.552
1544.33     95.752  -110.223
1566.79     95.502    82.153
1589.58     95.054   -95.452
1612.70     94.463    87.027
1636.16     93.982   -89.700
1659.95     93.678    95.541
1684.10     93.410   -88.043
1708.60     93.321    82.896
1733.45     93.523   -96.459
1758.66     93.790    81.527
1784.24     93.891  -118.743
1810.19     93.726    39.812
1836.52     93.272  -161.594
1863.24     92.555    -1.996
1890.34     91.863   160.064
1917.83     91.395   -50.261
1945.73     91.439   108.517
1974.03     92.018   -94.751
2002.74     92.819    44.227
2031.87     93.420   179.315
2061.43     93.584   -47.409
2091.41     93.229    73.775
2121.83     92.576  -172.550
2152.69     91.757   -41.036
2184.01     90.814    91.479
2215.77     90.065  -137.287
2248.00     89.923   -18.665
2280.70     90.539    85.707
2313.87     91.276  -177.257
2347.53     91.491   -80.975
2381.68     91.422    19.602
2416.32     91.214   112.487
2451.46     90.680  -165.692
2487.12     89.878   -95.529
2523.30     89.010   -34.814
2560.00     88.449    36.576
2597.24     87.945   109.258
2635.01     87.342  -179.179
2673.34     87.028  -126.958
2712.23     87.543   -76.510
2751.68     88.825   -27.069
2791.70     90.086    30.663
2832.31     91.077    80.321
2873.50     91.638   119.920
2915.30     91.767   146.267
2957.70     91.681   174.479
3000.72     91.327  -148.315
3044.37     90.461  -126.815
3088.65     88.703  -101.732
3133.58     86.847   -85.978
3179.16     85.913   -57.651
3225.40     86.171   -22.919
3272.31     87.636    -7.696
3319.91     89.398   -12.217
3368.20     90.775   -16.170
3417.19     91.699   -12.708
3466.89     92.417   -14.670
3517.32     93.508   -43.201
3568.48     94.825   -73.613
3620.39     95.975   -96.000
3673.05     96.933  -137.374
3726.47     97.573   164.316
3780.67     97.817   112.111
3835.67     97.866    66.807
3891.46     97.937     7.905
3948.06     98.217   -69.747
4005.49     98.840  -142.129
4063.75     99.672   138.605
4122.86    100.528    50.605
4182.82    101.268   -47.709
4243.66    101.786  -149.489
4305.39    102.074   101.985
4368.01    102.298   -13.757
4431.55    102.505  -122.740
4496.01    102.577   106.987
4561.40    102.396   -45.086
4627.75    101.842   172.219
4695.06    100.862    23.298
4763.35     99.880  -130.818
4832.64     99.602    86.802
4902.93    100.217   -75.554
4974.24    101.390    97.379
5046.60    102.389   -86.439
5120.00    102.958    74.661
5194.47    103.305  -126.369
5270.03    103.421    33.662
5346.68    103.147   159.250
5424.45    102.880   -63.935
5503.35    103.069    63.184
5583.40    103.362   164.204
5664.61    103.209   -76.971
5747.01    102.860    17.353
5830.60    102.819   109.617
5915.41    103.014  -170.188
6001.45    103.030  -112.451
6088.74    102.623   -50.913
6177.30    101.964    -5.773
6267.15    101.314    46.638
6358.31    100.488    64.640
6450.80     99.553    92.766
6544.62     99.065   107.645
6639.82     98.887   109.988
6736.40     98.176   101.500
6834.38     97.583    80.360
6933.79     97.015    61.301
7034.64     95.656    17.425
7136.96     94.467   -27.603
7240.77     92.927   -90.166
7346.09     91.189  -147.249
7452.94     92.141   150.803
7561.35     95.312    62.291
7671.33     97.774   -52.582
7782.91     98.634   170.205
7896.12     97.763    30.329
8010.97     95.441  -136.819
8127.49     93.204    69.360
8245.71     91.938   -93.809
8365.65     90.999    86.244
8487.33     89.807  -119.683
8610.78     86.768    18.093
8736.03     79.712  -169.335
8863.09     78.421     5.239
8992.01     82.507   141.654
9122.80     84.231   -94.020
9255.50     89.659     3.779
9390.12     95.871    60.951
9526.70     98.399    93.974
9665.27     98.588   116.495
9805.86     97.421   133.397
9948.49     97.757   142.765
10093.2    100.029   128.768
10240.0    100.768    90.041
10388.9    100.549    54.887
10540.1    101.533    -2.324
10693.4    103.040   -90.803
10848.9    103.165   160.061
11006.7    101.939    38.146
11166.8    100.362  -101.388
11329.2     99.404   113.826
11494.0     99.807   -46.636
11661.2     99.496   114.959
11830.8     95.868  -101.265
12002.9     91.668    52.005
12177.5     89.688  -173.476
12354.6     85.765   -76.832
12534.3     78.156    44.365
12716.6     79.277   174.187
12901.6     86.851  -118.142
13089.2     89.958  -101.119
13279.6     91.058  -103.560
13472.8     91.510  -125.064
13668.8     91.540  -170.049
13867.6     89.748   133.514
14069.3     87.348    70.063
14273.9     89.600    -7.146
14481.5     94.428  -124.381
14692.2     96.408    66.620
14905.9     96.174  -120.023
15122.7     95.824    38.056
15342.7     95.641   169.948
15565.8     93.958   -83.236
15792.2     91.097    -2.307
16021.9     87.421    65.238
16255.0     84.268   127.942
16491.4     84.664   173.807
16731.3     86.898   162.888
16974.7     87.093   101.161
17221.6     81.753    29.199
17472.1     75.412   -27.935
17726.2     75.663  -101.240
17984.0     79.841   137.773
18245.6     83.747   -27.949
18511.0     85.392   117.104
18780.2     85.257  -126.713
19053.4     84.877   -28.460
19330.5     84.091    33.615
19611.7     82.797    62.148
19897.0     80.902    62.123
20186.4     79.725    32.972
20480.0     79.599   -18.913
20777.9     79.605   -98.690
21080.1     79.579   153.157
21386.7     79.621     7.727
21697.8     79.568  -136.452
22013.4     79.203   -36.373
22333.6     78.839    63.703
22658.4     78.474   163.797
22988.0     78.110   -96.133
23322.4     77.745     3.935
23661.6     77.381   104.023
24005.8     77.017  -155.909
24355.0     76.652   -55.838
24709.2     76.288    44.255
25068.6     75.923   144.334
25433.2     75.559  -115.580
25803.2     75.194   -15.520
26178.5     74.830    84.564
26559.3     74.466  -175.340
26945.6     74.101   -75.283
27337.5     73.737    24.803
27735.2     73.372   124.864
28138.6     73.008  -135.053
28547.9     72.643   -34.978
28963.1     72.279    65.110
29384.4     71.915   165.182
29811.8     71.550   -94.738
30245.4     71.186     5.345
30685.3     70.821   105.431
31131.7     70.457  -154.507
31584.5     70.092   -54.425
32043.9     69.728    45.655
32510.0     69.364   145.730
32982.8     68.999  -114.177
33462.6     68.635   -14.109
33949.3     68.270    85.964
34443.1     67.906  -173.948
34944.1     67.541   -73.872
35452.4     67.177    26.201
35968.0     66.813   126.293
36491.2     66.448  -133.636
37022.0     66.084   -33.562
37560.5     65.719    66.515
38106.8     65.355   166.599
38661.1     64.990   -93.327
39223.4     64.626     6.758
39793.9     64.262   106.839
