"CEA2034"													
"On Axis"		"Listening Window"		"Early Reflections"		"Sound Power"		"Sound Power DI"		"Early Reflections DI"		"DI offset"	
"Frequency [Hz]"	"Sound Pessure Level [dB]  / [2.83V 1m] "	"Frequency [Hz]"	"Sound Pessure Level [dB]  / [2.83V 1m] "	"Frequency [Hz]"	"Sound Pessure Level [dB]  / [2.83V 1m] "	"Frequency [Hz]"	"Sound Pessure Level [dB]  / [2.83V 1m] "	"Frequency [Hz]"	"Sound Pessure Level [dB]  / [2.83V 1m] "	"Frequency [Hz]"	"Sound Pessure Level [dB]  / [2.83V 1m] "	"Frequency [Hz]"	"Sound Pessure Level [dB]  / [2.83V 1m] "
20.5078	56.0893	20.5078	56.2143	20.5078	57.419	20.5078	59.0741	20.5078	47.1196	20.5078	48.7746	20.5078	49.9794
21.9727	61.9796	21.9727	62.0489	21.9727	63.0524	21.9727	64.5978	21.9727	47.4305	21.9727	48.976	21.9727	49.9794
23.4375	62.981	23.4375	62.9049	23.4375	62.7614	23.4375	63.2312	23.4375	49.6531	23.4375	50.1229	23.4375	49.9794
24.9023	63.8207	24.9023	63.794	24.9023	64.6573	24.9023	66.6886	24.9023	47.0848	24.9023	49.1161	24.9023	49.9794
26.3672	66.477	26.3672	66.5398	26.3672	67.9851	26.3672	70.3194	26.3672	46.1998	26.3672	48.5341	26.3672	49.9794
27.832	69.6401	27.832	69.7013	27.832	70.9396	27.832	73.0219	27.832	46.6588	27.832	48.7411	27.832	49.9794
29.2969	73.8386	29.2969	73.8986	29.2969	74.8491	29.2969	76.4832	29.2969	47.3948	29.2969	49.0289	29.2969	49.9794
30.7617	76.5111	30.7617	76.5719	30.7617	77.4759	30.7617	79.0213	30.7617	47.5299	30.7617	49.0754	30.7617	49.9794
32.2266	79.213	32.2266	79.2684	32.2266	80.0278	32.2266	81.3488	32.2266	47.8991	32.2266	49.22	32.2266	49.9794
33.6914	81.5712	33.6914	81.6226	33.6914	82.2962	33.6914	83.4819	33.6914	48.1201	33.6914	49.3058	33.6914	49.9794
35.1562	83.418	35.1562	83.4682	35.1562	84.1059	35.1562	85.2383	35.1562	48.2093	35.1562	49.3417	35.1562	49.9794
36.6211	85.2539	36.6211	85.3034	36.6211	85.898	36.6211	86.9469	36.6211	48.3359	36.6211	49.3848	36.6211	49.9794
38.0859	86.8533	38.0859	86.9014	38.0859	87.4472	38.0859	88.4046	38.0859	48.4762	38.0859	49.4337	38.0859	49.9794
39.5508	88.3358	39.5508	88.3805	39.5508	88.8686	39.5508	89.724	39.5508	48.636	39.5508	49.4914	39.5508	49.9794
41.0156	89.4495	41.0156	89.4947	41.0156	89.9326	41.0156	90.6728	41.0156	48.8013	41.0156	49.5415	41.0156	49.9794
42.4805	90.404	42.4805	90.4446	42.4805	90.8442	42.4805	91.5372	42.4805	48.8868	42.4805	49.5798	42.4805	49.9794
43.9453	91.2459	43.9453	91.2864	43.9453	91.6684	43.9453	92.3225	43.9453	48.9432	43.9453	49.5973	43.9453	49.9794
45.4102	91.961	45.4102	91.9992	45.4102	92.3486	45.4102	92.943	45.4102	49.0356	45.4102	49.63	45.4102	49.9794
46.875	92.5306	46.875	92.5669	46.875	92.8864	46.875	93.4223	46.875	49.124	46.875	49.66	46.875	49.9794
48.3398	92.9336	48.3398	92.9672	48.3398	93.2568	48.3398	93.7454	48.3398	49.2012	48.3398	49.6898	48.3398	49.9794
51.2695	93.2152	51.2695	93.2481	51.2695	93.5188	51.2695	93.9717	51.2695	49.2558	51.2695	49.7087	51.2695	49.9794
52.7344	93.244	52.7344	93.2773	52.7344	93.5427	52.7344	93.9791	52.7344	49.2777	52.7344	49.714	52.7344	49.9794
54.1992	93.2551	54.1992	93.2863	54.1992	93.523	54.1992	93.9043	54.1992	49.3614	54.1992	49.7427	54.1992	49.9794
55.6641	93.3367	55.6641	93.3617	55.6641	93.5424	55.6641	93.8331	55.6641	49.508	55.6641	49.7987	55.6641	49.9794
58.5938	93.2521	58.5938	93.2744	58.5938	93.4228	58.5938	93.6564	58.5938	49.5975	58.5938	49.831	58.5938	49.9794
60.0586	93.2296	60.0586	93.2511	60.0586	93.3902	60.0586	93.6086	60.0586	49.6219	60.0586	49.8403	60.0586	49.9794
62.9883	93.1325	62.9883	93.1536	62.9883	93.2829	62.9883	93.4764	62.9883	49.6566	62.9883	49.85	62.9883	49.9794
64.4531	93.156	64.4531	93.1779	64.4531	93.3078	64.4531	93.4991	64.4531	49.6581	64.4531	49.8495	64.4531	49.9794
67.3828	92.9625	67.3828	92.9869	67.3828	93.1284	67.3828	93.3344	67.3828	49.6319	67.3828	49.8379	67.3828	49.9794
68.8477	92.8907	68.8477	92.9169	68.8477	93.0746	68.8477	93.3066	68.8477	49.5897	68.8477	49.8217	68.8477	49.9794
71.7773	92.9937	71.7773	93.0161	71.7773	93.1514	71.7773	93.3556	71.7773	49.6399	71.7773	49.8441	71.7773	49.9794
74.707	93.1446	74.707	93.1624	74.707	93.2605	74.707	93.4063	74.707	49.7355	74.707	49.8813	74.707	49.9794
77.6367	93.169	77.6367	93.1857	77.6367	93.2697	77.6367	93.3891	77.6367	49.7759	77.6367	49.8954	77.6367	49.9794
79.1016	93.2551	79.1016	93.2688	79.1016	93.3273	79.1016	93.4063	79.1016	49.8419	79.1016	49.9209	79.1016	49.9794
82.0312	93.3047	82.0312	93.3145	82.0312	93.3301	82.0312	93.3288	82.0312	49.965	82.0312	49.9637	82.0312	49.9794
84.9609	93.4076	84.9609	93.4195	84.9609	93.4443	84.9609	93.4503	84.9609	49.9486	84.9609	49.9546	84.9609	49.9794
87.8906	93.5759	87.8906	93.5782	87.8906	93.5614	87.8906	93.5393	87.8906	50.0183	87.8906	49.9962	87.8906	49.9794
90.8203	93.6731	90.8203	93.6772	90.8203	93.6766	90.8203	93.6876	90.8203	49.969	90.8203	49.9799	90.8203	49.9794
95.2148	94.0001	95.2148	93.9979	95.2148	93.9357	95.2148	93.8334	95.2148	50.1439	95.2148	50.0416	95.2148	49.9794
98.1445	94.0048	98.1445	94.0051	98.1445	93.9698	98.1445	93.9227	98.1445	50.0617	98.1445	50.0146	98.1445	49.9794
101.074	93.9594	101.074	93.958	101.074	93.9124	101.074	93.8591	101.074	50.0783	101.074	50.025	101.074	49.9794
105.469	94.0578	105.469	94.0521	105.469	93.9759	105.469	93.8594	105.469	50.1722	105.469	50.0557	105.469	49.9794
108.398	94.3351	108.398	94.3224	108.398	94.196	108.398	94.0073	108.398	50.2945	108.398	50.1059	108.398	49.9794
112.793	94.5306	112.793	94.5143	112.793	94.3465	112.793	94.0662	112.793	50.4275	112.793	50.1472	112.793	49.9794
117.188	94.4523	117.188	94.4369	117.188	94.2883	117.188	94.0445	117.188	50.3718	117.188	50.128	117.188	49.9794
120.117	94.5216	120.117	94.5039	120.117	94.3392	120.117	94.0848	120.117	50.3984	120.117	50.1441	120.117	49.9794
124.512	94.6652	124.512	94.6482	124.512	94.4676	124.512	94.1639	124.512	50.4637	124.512	50.16	124.512	49.9794
128.906	94.4644	128.906	94.4561	128.906	94.3379	128.906	94.1257	128.906	50.3099	128.906	50.0977	128.906	49.9794
133.301	94.5229	133.301	94.5066	133.301	94.3663	133.301	94.1787	133.301	50.3073	133.301	50.1197	133.301	49.9794
139.16	94.6684	139.16	94.6443	139.16	94.4549	139.16	94.202	139.16	50.4216	139.16	50.1688	139.16	49.9794
143.555	94.7664	143.555	94.735	143.555	94.5093	143.555	94.2308	143.555	50.4836	143.555	50.2051	143.555	49.9794
147.949	94.8957	147.949	94.86	147.949	94.5918	147.949	94.24	147.949	50.5994	147.949	50.2476	147.949	49.9794
153.809	94.6438	153.809	94.609	153.809	94.3584	153.809	94.0291	153.809	50.5593	153.809	50.23	153.809	49.9794
159.668	94.7871	159.668	94.7574	159.668	94.5417	159.668	94.262	159.668	50.4749	159.668	50.1951	159.668	49.9794
165.527	94.8029	165.527	94.7596	165.527	94.4898	165.527	94.1854	165.527	50.5535	165.527	50.2491	165.527	49.9794
171.387	94.711	171.387	94.671	171.387	94.3972	171.387	94.0794	171.387	50.5711	171.387	50.2532	171.387	49.9794
177.246	94.9549	177.246	94.8843	177.246	94.4644	177.246	94.019	177.246	50.8447	177.246	50.3993	177.246	49.9794
183.105	94.908	183.105	94.8532	183.105	94.442	183.105	93.8562	183.105	50.9763	183.105	50.3906	183.105	49.9794
188.965	94.663	188.965	94.6047	188.965	94.2293	188.965	93.7931	188.965	50.7911	188.965	50.3548	188.965	49.9794
196.289	94.8803	196.289	94.8095	196.289	94.4072	196.289	93.958	196.289	50.8309	196.289	50.3817	196.289	49.9794
203.613	95.0875	203.613	94.9996	203.613	94.4574	203.613	93.7497	203.613	51.2293	203.613	50.5216	203.613	49.9794
210.938	94.826	210.938	94.7477	210.938	94.2473	210.938	93.6191	210.938	51.1081	210.938	50.4798	210.938	49.9794
218.262	94.7413	218.262	94.6618	218.262	94.1964	218.262	93.7027	218.262	50.9384	218.262	50.4447	218.262	49.9794
225.586	95.2301	225.586	95.1206	225.586	94.4945	225.586	93.7834	225.586	51.3165	225.586	50.6055	225.586	49.9794
232.91	95.2458	232.91	95.1393	232.91	94.4832	232.91	93.6419	232.91	51.4768	232.91	50.6355	232.91	49.9794
241.699	95.0995	241.699	95.0232	241.699	94.4361	241.699	93.5809	241.699	51.4217	241.699	50.5664	241.699	49.9794
250.488	95.3431	250.488	95.2384	250.488	94.5617	250.488	93.6542	250.488	51.5635	250.488	50.6561	250.488	49.9794
259.277	95.4758	259.277	95.3757	259.277	94.6454	259.277	93.7089	259.277	51.6463	259.277	50.7098	259.277	49.9794
268.066	94.8371	268.066	94.775	268.066	94.2585	268.066	93.4411	268.066	51.3133	268.066	50.4959	268.066	49.9794
276.855	94.9806	276.855	94.8693	276.855	94.2661	276.855	93.5518	276.855	51.2969	276.855	50.5826	276.855	49.9794
287.109	95.0524	287.109	94.9388	287.109	94.1901	287.109	93.404	287.109	51.5142	287.109	50.7281	287.109	49.9794
297.363	95.9805	297.363	95.8041	297.363	94.7335	297.363	93.524	297.363	52.2595	297.363	51.05	297.363	49.9794
307.617	95.7487	307.617	95.6065	307.617	94.7102	307.617	93.5477	307.617	52.0382	307.617	50.8757	307.617	49.9794
319.336	95.7169	319.336	95.5324	319.336	94.4686	319.336	93.3197	319.336	52.1921	319.336	51.0431	319.336	49.9794
329.59	96.0195	329.59	95.9228	329.59	94.9665	329.59	93.6253	329.59	52.2769	329.59	50.9357	329.59	49.9794
341.309	96.7762	341.309	96.5935	341.309	95.462	341.309	94.134	341.309	52.4389	341.309	51.1109	341.309	49.9794
353.027	96.8556	353.027	96.7464	353.027	95.747	353.027	94.1287	353.027	52.5971	353.027	50.9788	353.027	49.9794
366.211	96.8556	366.211	96.7429	366.211	95.7499	366.211	94.0499	366.211	52.6723	366.211	50.9724	366.211	49.9794
379.395	96.9268	379.395	96.8026	379.395	95.8225	379.395	94.1482	379.395	52.6338	379.395	50.9596	379.395	49.9794
392.578	96.3498	392.578	96.2493	392.578	95.3778	392.578	93.7226	392.578	52.506	392.578	50.8509	392.578	49.9794
405.762	96.6935	405.762	96.4944	405.762	95.3053	405.762	93.5641	405.762	52.9097	405.762	51.1685	405.762	49.9794
420.41	96.3757	420.41	96.2359	420.41	95.2066	420.41	93.4821	420.41	52.7332	420.41	51.0088	420.41	49.9794
435.059	96.3733	435.059	96.2261	435.059	95.0982	435.059	93.4734	435.059	52.7321	435.059	51.1073	435.059	49.9794
451.172	96.5478	451.172	96.3956	451.172	95.3913	451.172	93.2465	451.172	53.1284	451.172	50.9837	451.172	49.9794
465.82	96.3524	465.82	96.1519	465.82	94.9423	465.82	92.9645	465.82	53.1668	465.82	51.1891	465.82	49.9794
483.398	96.215	483.398	96.0887	483.398	95.0367	483.398	92.9991	483.398	53.069	483.398	51.0314	483.398	49.9794
499.512	96.2812	499.512	96.1388	499.512	94.9838	499.512	93.0113	499.512	53.1069	499.512	51.1343	499.512	49.9794
517.09	95.5979	517.09	95.4543	517.09	94.4613	517.09	92.661	517.09	52.7727	517.09	50.9724	517.09	49.9794
536.133	96.1633	536.133	95.9079	536.133	94.4567	536.133	92.1931	536.133	53.6941	536.133	51.4306	536.133	49.9794
555.176	96.0615	555.176	95.8871	555.176	94.6062	555.176	92.0765	555.176	53.79	555.176	51.2603	555.176	49.9794
574.219	95.681	574.219	95.5675	574.219	94.7111	574.219	92.2774	574.219	53.2695	574.219	50.8358	574.219	49.9794
594.727	95.4453	594.727	95.2017	594.727	94.1516	594.727	91.8649	594.727	53.3162	594.727	51.0296	594.727	49.9794
615.234	95.7552	615.234	95.5576	615.234	94.4818	615.234	92.0584	615.234	53.4787	615.234	51.0553	615.234	49.9794
637.207	96.5509	637.207	96.0798	637.207	94.9231	637.207	92.5368	637.207	53.5224	637.207	51.1362	637.207	49.9794
659.18	96.8039	659.18	96.4484	659.18	94.9481	659.18	92.3648	659.18	54.063	659.18	51.4796	659.18	49.9794
682.617	97.4493	682.617	96.9587	682.617	95.3071	682.617	92.8855	682.617	54.0527	682.617	51.6311	682.617	49.9794
707.52	97.9924	707.52	97.4983	707.52	95.6705	707.52	92.9606	707.52	54.517	707.52	51.8071	707.52	49.9794
732.422	97.5162	732.422	97.1894	732.422	95.3906	732.422	92.7186	732.422	54.4502	732.422	51.7782	732.422	49.9794
757.324	98.0726	757.324	97.6999	757.324	95.7825	757.324	93.2045	757.324	54.4748	757.324	51.8968	757.324	49.9794
785.156	98.7173	785.156	98.1494	785.156	95.8983	785.156	93.1489	785.156	54.9798	785.156	52.2305	785.156	49.9794
811.523	98.7717	811.523	98.47	811.523	96.1719	811.523	93.4608	811.523	54.9886	811.523	52.2775	811.523	49.9794
840.82	99.0033	840.82	98.665	840.82	96.3327	840.82	93.6025	840.82	55.0419	840.82	52.3117	840.82	49.9794
870.117	99.3263	870.117	98.9063	870.117	96.3298	870.117	93.4816	870.117	55.4041	870.117	52.5558	870.117	49.9794
900.879	99.0015	900.879	98.937	900.879	96.6703	900.879	93.8449	900.879	55.0715	900.879	52.246	900.879	49.9794
933.105	99.2811	933.105	98.8128	933.105	96.4185	933.105	93.4695	933.105	55.3227	933.105	52.3737	933.105	49.9794
965.332	98.9414	965.332	98.6004	965.332	96.3367	965.332	93.3038	965.332	55.276	965.332	52.2431	965.332	49.9794
1,000.49	98.6298	1,000.49	98.1735	1,000.49	95.8504	1,000.49	92.8449	1,000.49	55.308	1,000.49	52.3025	1,000.49	49.9794
1,035.64	98.1913	1,035.64	97.7147	1,035.64	95.3626	1,035.64	92.3693	1,035.64	55.3249	1,035.64	52.3316	1,035.64	49.9794
1,072.27	97.7616	1,072.27	97.3785	1,072.27	94.8893	1,072.27	91.8869	1,072.27	55.4711	1,072.27	52.4686	1,072.27	49.9794
1,108.89	97.2994	1,108.89	96.7622	1,108.89	94.5654	1,108.89	91.6531	1,108.89	55.0884	1,108.89	52.1761	1,108.89	49.9794
1,148.44	96.4948	1,148.44	96.2052	1,148.44	93.868	1,148.44	90.9056	1,148.44	55.2789	1,148.44	52.3166	1,148.44	49.9794
1,189.45	95.9737	1,189.45	95.4026	1,189.45	92.8996	1,189.45	89.769	1,189.45	55.613	1,189.45	52.4823	1,189.45	49.9794
1,230.47	95.8908	1,230.47	95.1709	1,230.47	92.4702	1,230.47	89.2312	1,230.47	55.9191	1,230.47	52.68	1,230.47	49.9794
1,274.41	95.9745	1,274.41	95.2357	1,274.41	92.3308	1,274.41	88.8593	1,274.41	56.3559	1,274.41	52.8843	1,274.41	49.9794
1,319.82	96.3726	1,319.82	95.6377	1,319.82	92.5967	1,319.82	88.9359	1,319.82	56.6812	1,319.82	53.0204	1,319.82	49.9794
1,366.7	95.7645	1,366.7	95.2568	1,366.7	92.4628	1,366.7	88.9817	1,366.7	56.2546	1,366.7	52.7735	1,366.7	49.9794
1,413.57	95.5218	1,413.57	95.0731	1,413.57	92.3875	1,413.57	88.926	1,413.57	56.1265	1,413.57	52.665	1,413.57	49.9794
1,463.38	95.2302	1,463.38	94.6339	1,463.38	91.8672	1,463.38	88.4742	1,463.38	56.1391	1,463.38	52.746	1,463.38	49.9794
1,516.11	94.4777	1,516.11	94.0372	1,516.11	91.2636	1,516.11	87.6865	1,516.11	56.3301	1,516.11	52.7531	1,516.11	49.9794
1,568.85	94.4013	1,568.85	93.5165	1,568.85	90.6554	1,568.85	87.0615	1,568.85	56.4344	1,568.85	52.8405	1,568.85	49.9794
1,624.51	95.0322	1,624.51	94.4412	1,624.51	91.3548	1,624.51	87.5557	1,624.51	56.8649	1,624.51	53.0658	1,624.51	49.9794
1,681.64	96.0825	1,681.64	95.5264	1,681.64	92.3745	1,681.64	88.328	1,681.64	57.1778	1,681.64	53.1313	1,681.64	49.9794
1,741.7	96.1157	1,741.7	95.475	1,741.7	92.2042	1,741.7	88.0394	1,741.7	57.415	1,741.7	53.2502	1,741.7	49.9794
1,803.22	96.1035	1,803.22	95.2042	1,803.22	91.8129	1,803.22	87.6558	1,803.22	57.5278	1,803.22	53.3707	1,803.22	49.9794
1,866.21	95.4478	1,866.21	94.5815	1,866.21	91.3143	1,866.21	87.2779	1,866.21	57.283	1,866.21	53.2466	1,866.21	49.9794
1,932.13	95.2978	1,932.13	94.2618	1,932.13	91.0772	1,932.13	87.2017	1,932.13	57.0395	1,932.13	53.164	1,932.13	49.9794
1,999.51	95.7133	1,999.51	94.8572	1,999.51	91.6558	1,999.51	87.7172	1,999.51	57.1194	1,999.51	53.1808	1,999.51	49.9794
2,069.82	95.7976	2,069.82	95.3267	2,069.82	92.1499	2,069.82	88.3707	2,069.82	56.9353	2,069.82	53.1562	2,069.82	49.9794
2,143.07	95.4352	2,143.07	95.022	2,143.07	91.9416	2,143.07	88.2704	2,143.07	56.731	2,143.07	53.0598	2,143.07	49.9794
2,219.24	94.7502	2,219.24	94.1284	2,219.24	91.4036	2,219.24	87.9146	2,219.24	56.1932	2,219.24	52.7043	2,219.24	49.9794
2,296.88	94.1527	2,296.88	93.9713	2,296.88	91.4621	2,296.88	88.0604	2,296.88	55.8903	2,296.88	52.4886	2,296.88	49.9794
2,378.91	95.1044	2,378.91	94.9796	2,378.91	92.5122	2,378.91	89.1664	2,378.91	55.7926	2,378.91	52.4468	2,378.91	49.9794
2,462.4	96.1354	2,462.4	96.3195	2,462.4	93.7466	2,462.4	90.2088	2,462.4	56.0901	2,462.4	52.5523	2,462.4	49.9794
2,548.83	95.8839	2,548.83	96.1981	2,548.83	93.7405	2,548.83	90.3003	2,548.83	55.8772	2,548.83	52.437	2,548.83	49.9794
2,639.65	95.5644	2,639.65	95.6157	2,639.65	93.346	2,639.65	90.1487	2,639.65	55.4464	2,639.65	52.2491	2,639.65	49.9794
2,731.93	94.7485	2,731.93	95.1585	2,731.93	93.0009	2,731.93	89.7904	2,731.93	55.3475	2,731.93	52.137	2,731.93	49.9794
2,828.61	95.3712	2,828.61	95.7349	2,828.61	93.5445	2,828.61	90.2355	2,828.61	55.4789	2,828.61	52.1698	2,828.61	49.9794
2,928.22	96.656	2,928.22	96.7057	2,928.22	94.4408	2,928.22	90.9437	2,928.22	55.7414	2,928.22	52.2443	2,928.22	49.9794
3,030.76	96.6955	3,030.76	96.9429	3,030.76	94.7864	3,030.76	91.3012	3,030.76	55.6211	3,030.76	52.1359	3,030.76	49.9794
3,137.7	96.4697	3,137.7	96.6935	3,137.7	94.6551	3,137.7	91.1899	3,137.7	55.483	3,137.7	52.0178	3,137.7	49.9794
3,249.02	95.8532	3,249.02	96.5294	3,249.02	94.5794	3,249.02	91.2448	3,249.02	55.264	3,249.02	51.9293	3,249.02	49.9794
3,363.28	95.7173	3,363.28	96.5408	3,363.28	94.4977	3,363.28	91.2402	3,363.28	55.28	3,363.28	52.0225	3,363.28	49.9794
3,481.93	96.1387	3,481.93	96.9244	3,481.93	94.9453	3,481.93	91.6465	3,481.93	55.2574	3,481.93	51.9585	3,481.93	49.9794
3,604.98	97.4028	3,604.98	97.5061	3,604.98	95.5135	3,604.98	92.2209	3,604.98	55.2646	3,604.98	51.972	3,604.98	49.9794
3,732.42	98.0701	3,732.42	98.0458	3,732.42	95.789	3,732.42	92.3031	3,732.42	55.722	3,732.42	52.2362	3,732.42	49.9794
3,864.26	97.4026	3,864.26	96.8442	3,864.26	94.8725	3,864.26	91.5143	3,864.26	55.3094	3,864.26	51.9511	3,864.26	49.9794
4,000.49	97.093	4,000.49	96.5323	4,000.49	94.462	4,000.49	91.0216	4,000.49	55.4901	4,000.49	52.0497	4,000.49	49.9794
4,141.11	97.0786	4,141.11	96.6947	4,141.11	94.7166	4,141.11	91.2455	4,141.11	55.4287	4,141.11	51.9575	4,141.11	49.9794
4,287.6	97.5478	4,287.6	96.6598	4,287.6	94.7029	4,287.6	91.2553	4,287.6	55.3839	4,287.6	51.9364	4,287.6	49.9794
4,438.48	97.8308	4,438.48	96.7586	4,438.48	94.5368	4,438.48	91.0975	4,438.48	55.6405	4,438.48	52.2012	4,438.48	49.9794
4,595.21	96.2193	4,595.21	95.7043	4,595.21	93.7181	4,595.21	90.5394	4,595.21	55.1443	4,595.21	51.9656	4,595.21	49.9794
4,756.35	97.3309	4,756.35	96.7243	4,756.35	94.6511	4,756.35	90.9956	4,756.35	55.7081	4,756.35	52.0526	4,756.35	49.9794
4,924.8	97.7224	4,924.8	96.9114	4,924.8	94.8104	4,924.8	91.013	4,924.8	55.8778	4,924.8	52.0804	4,924.8	49.9794
5,097.66	97.3697	5,097.66	96.2322	5,097.66	94.568	5,097.66	90.7256	5,097.66	55.4861	5,097.66	51.6437	5,097.66	49.9794
5,277.83	97.6873	5,277.83	96.7821	5,277.83	94.8017	5,277.83	90.8481	5,277.83	55.9134	5,277.83	51.9598	5,277.83	49.9794
5,463.87	97.2045	5,463.87	96.4322	5,463.87	94.3947	5,463.87	90.6844	5,463.87	55.7271	5,463.87	52.0168	5,463.87	49.9794
5,657.23	96.6996	5,657.23	96.0876	5,657.23	94.2897	5,657.23	90.5365	5,657.23	55.5305	5,657.23	51.7773	5,657.23	49.9794
5,856.45	96.4131	5,856.45	95.6458	5,856.45	93.871	5,856.45	90.1415	5,856.45	55.4836	5,856.45	51.7541	5,856.45	49.9794
6,062.99	96.1486	6,062.99	95.4576	6,062.99	93.4585	6,062.99	89.9465	6,062.99	55.4905	6,062.99	51.9785	6,062.99	49.9794
6,276.86	95.6992	6,276.86	95.4077	6,276.86	92.9851	6,276.86	89.4509	6,276.86	55.9361	6,276.86	52.402	6,276.86	49.9794
6,498.05	96.2801	6,498.05	95.9505	6,498.05	93.4418	6,498.05	89.6502	6,498.05	56.2797	6,498.05	52.4881	6,498.05	49.9794
6,726.56	96.1422	6,726.56	95.8693	6,726.56	93.4535	6,726.56	89.6028	6,726.56	56.2459	6,726.56	52.3952	6,726.56	49.9794
6,963.87	96.9724	6,963.87	95.7853	6,963.87	93.4072	6,963.87	89.4453	6,963.87	56.3194	6,963.87	52.3574	6,963.87	49.9794
7,209.96	96.3369	7,209.96	95.8751	7,209.96	93.5207	7,209.96	89.7517	7,209.96	56.1028	7,209.96	52.3338	7,209.96	49.9794
7,464.84	94.7742	7,464.84	95.17	7,464.84	93.069	7,464.84	89.3755	7,464.84	55.774	7,464.84	52.0805	7,464.84	49.9794
7,727.05	95.0507	7,727.05	95.2994	7,727.05	93.3571	7,727.05	89.5204	7,727.05	55.7584	7,727.05	51.9217	7,727.05	49.9794
7,999.51	94.3938	7,999.51	94.7905	7,999.51	93.1297	7,999.51	89.2797	7,999.51	55.4902	7,999.51	51.6401	7,999.51	49.9794
8,282.23	94.111	8,282.23	94.6008	8,282.23	92.9478	8,282.23	89.0902	8,282.23	55.49	8,282.23	51.6323	8,282.23	49.9794
8,573.73	93.5237	8,573.73	94.4208	8,573.73	92.5958	8,573.73	88.8326	8,573.73	55.5676	8,573.73	51.8044	8,573.73	49.9794
8,876.95	93.5636	8,876.95	94.8688	8,876.95	93.0166	8,876.95	89.0896	8,876.95	55.7585	8,876.95	51.8315	8,876.95	49.9794
9,188.96	93.4327	9,188.96	94.7085	9,188.96	92.8901	9,188.96	89.0224	9,188.96	55.6655	9,188.96	51.7978	9,188.96	49.9794
9,514.16	94.5503	9,514.16	95.2942	9,514.16	93.218	9,514.16	89.2861	9,514.16	55.9876	9,514.16	52.0556	9,514.16	49.9794
9,849.61	94.713	9,849.61	95.3296	9,849.61	93.0193	9,849.61	89.0939	9,849.61	56.2151	9,849.61	52.2897	9,849.61	49.9794
10,196.8	96.0898	10,196.8	95.8082	10,196.8	93.3896	10,196.8	89.2199	10,196.8	56.5677	10,196.8	52.398	10,196.8	49.9794
10,555.7	97.0534	10,555.7	96.246	10,555.7	93.5029	10,555.7	89.1934	10,555.7	57.032	10,555.7	52.7224	10,555.7	49.9794
10,927.7	97.9417	10,927.7	96.8817	10,927.7	93.6537	10,927.7	89.101	10,927.7	57.7601	10,927.7	53.2074	10,927.7	49.9794
11,313	98.5522	11,313	97.4288	11,313	93.7631	11,313	89.0088	11,313	58.3994	11,313	53.6451	11,313	49.9794
11,712.9	98.7966	11,712.9	97.7699	11,712.9	93.7513	11,712.9	88.8059	11,712.9	58.9434	11,712.9	53.998	11,712.9	49.9794
12,126	99.109	12,126	97.8956	12,126	93.7303	12,126	88.5531	12,126	59.3219	12,126	54.1448	12,126	49.9794
12,553.7	99.0175	12,553.7	97.8253	12,553.7	93.4842	12,553.7	88.1487	12,553.7	59.656	12,553.7	54.3205	12,553.7	49.9794
12,996.1	98.7922	12,996.1	97.5569	12,996.1	93.0021	12,996.1	87.562	12,996.1	59.9743	12,996.1	54.5342	12,996.1	49.9794
13,454.6	98.4972	13,454.6	97.1192	13,454.6	92.489	13,454.6	86.9558	13,454.6	60.1428	13,454.6	54.6096	13,454.6	49.9794
13,929.2	98.142	13,929.2	96.7265	13,929.2	91.9325	13,929.2	86.2864	13,929.2	60.4195	13,929.2	54.7734	13,929.2	49.9794
14,419.9	97.401	14,419.9	96.0391	14,419.9	91.2062	14,419.9	85.4798	14,419.9	60.5387	14,419.9	54.8122	14,419.9	49.9794
14,928.2	96.7516	14,928.2	95.3507	14,928.2	90.4549	14,928.2	84.6416	14,928.2	60.6885	14,928.2	54.8752	14,928.2	49.9794
15,455.6	96.1745	15,455.6	94.7556	15,455.6	89.8142	15,455.6	83.9622	15,455.6	60.7727	15,455.6	54.9207	15,455.6	49.9794
16,000.5	95.6441	16,000.5	94.1632	16,000.5	89.1789	16,000.5	83.2951	16,000.5	60.8475	16,000.5	54.9637	16,000.5	49.9794
16,564.5	95.1789	16,564.5	93.6196	16,564.5	88.5606	16,564.5	82.6278	16,564.5	60.9713	16,564.5	55.0385	16,564.5	49.9794
17,148.9	94.8107	17,148.9	93.0236	17,148.9	87.8358	17,148.9	81.8754	17,148.9	61.1276	17,148.9	55.1672	17,148.9	49.9794
17,752.4	94.2242	17,752.4	92.1998	17,752.4	86.8341	17,752.4	80.7978	17,752.4	61.3814	17,752.4	55.3451	17,752.4	49.9794
18,379.4	94.0526	18,379.4	91.6267	18,379.4	86.0895	18,379.4	79.839	18,379.4	61.7671	18,379.4	55.5165	18,379.4	49.9794
19,026.9	93.5902	19,026.9	90.8766	19,026.9	85.2766	19,026.9	78.8734	19,026.9	61.9827	19,026.9	55.5794	19,026.9	49.9794
19,697.8	92.5597	19,697.8	89.7425	19,697.8	84.1673	19,697.8	77.797	19,697.8	61.9248	19,697.8	55.5545	19,697.8	49.9794
19,999.5	92.1829	19,999.5	89.3353	19,999.5	83.765	19,999.5	77.4119	19,999.5	61.9028	19,999.5	55.5497	19,999.5	49.9794
