"Horizontal Reflections"							
"Front"		"Side"		"Rear"		"Total Horizontal Reflection"	
"Frequency [Hz]"	"Sound Pessure Level [dB]  / [2.83V 1m] "	"Frequency [Hz]"	"Sound Pessure Level [dB]  / [2.83V 1m] "	"Frequency [Hz]"	"Sound Pessure Level [dB]  / [2.83V 1m] "	"Frequency [Hz]"	"Sound Pessure Level [dB]  / [2.83V 1m] "
20.5078	56.8509	20.5078	56.7177	20.5078	56.5812	20.5078	56.6728
21.9727	58.6932	21.9727	58.5064	21.9727	58.0275	21.9727	58.2993
23.4375	59.5602	23.4375	59.3832	23.4375	58.9476	23.4375	59.1956
24.9023	60.382	24.9023	60.1598	24.9023	59.6308	24.9023	59.9356
26.3672	60.7996	26.3672	60.6872	26.3672	60.4058	26.3672	60.5638
27.832	62.419	27.832	62.2967	27.832	62.0273	27.832	62.1814
29.2969	63.1028	29.2969	62.908	29.2969	62.4775	29.2969	62.7267
30.7617	63.8977	30.7617	63.7695	30.7617	63.3978	30.7617	63.6036
32.2266	64.5162	32.2266	64.3836	32.2266	64.0648	32.2266	64.2454
33.6914	65.153	33.6914	65.0117	33.6914	64.6783	33.6914	64.8679
35.1562	65.7488	35.1562	65.6076	35.1562	65.2856	35.1562	65.4695
36.6211	66.3491	36.6211	66.2088	36.6211	65.8678	36.6211	66.061
38.0859	66.9158	38.0859	66.7733	38.0859	66.4238	38.0859	66.6216
39.5508	67.3716	39.5508	67.2201	39.5508	66.8715	39.5508	67.0708
41.0156	68.0379	41.0156	67.9598	41.0156	67.7816	41.0156	67.8823
42.4805	68.7802	42.4805	68.6268	42.4805	68.3067	42.4805	68.4922
43.9453	69.0685	43.9453	68.9017	43.9453	68.4994	43.9453	68.7286
45.4102	69.5671	45.4102	69.4142	45.4102	69.0304	45.4102	69.2475
46.875	69.8718	46.875	69.7556	46.875	69.4332	46.875	69.6122
48.3398	70.6785	48.3398	70.5117	48.3398	70.0956	48.3398	70.3317
51.2695	71.1772	51.2695	71.0352	51.2695	70.6921	51.2695	70.8866
52.7344	71.5584	52.7344	71.4399	52.7344	71.1761	52.7344	71.3267
54.1992	71.9991	54.1992	71.8779	54.1992	71.6254	54.1992	71.7711
55.6641	72.5585	55.6641	72.3938	55.6641	72.0749	55.6641	72.2622
58.5938	73.13	58.5938	72.9305	58.5938	72.4607	58.5938	72.7307
60.0586	73.5517	60.0586	73.3125	60.0586	72.7245	60.0586	73.063
62.9883	74.3927	62.9883	74.2036	62.9883	73.7102	62.9883	73.9898
64.4531	74.6373	64.4531	74.4686	64.4531	74.0745	64.4531	74.3
67.3828	74.8973	67.3828	74.8063	67.3828	74.6353	67.3828	74.7351
68.8477	75.235	68.8477	75.1414	68.8477	74.9919	68.8477	75.0818
71.7773	75.9228	71.7773	75.7996	71.7773	75.5947	71.7773	75.7175
74.707	76.5918	74.707	76.4609	74.707	76.152	74.707	76.3274
77.6367	77.025	77.6367	76.9158	77.6367	76.6997	77.6367	76.8251
79.1016	77.2318	79.1016	77.1004	79.1016	76.8747	79.1016	77.0093
82.0312	77.6918	82.0312	77.5198	82.0312	77.2529	82.0312	77.4161
84.9609	78.1147	84.9609	77.967	84.9609	77.7593	84.9609	77.8885
87.8906	78.6452	87.8906	78.4825	87.8906	78.2781	87.8906	78.4087
90.8203	79.2428	90.8203	78.9886	90.8203	78.5751	90.8203	78.8284
95.2148	79.8051	95.2148	79.5703	95.2148	79.1298	95.2148	79.3925
98.1445	80.1782	98.1445	79.9337	98.1445	79.4738	98.1445	79.7484
101.074	80.3757	101.074	80.1897	101.074	79.8552	101.074	80.0547
105.469	80.8867	105.469	80.6427	105.469	80.3623	105.469	80.5471
108.398	81.2266	108.398	80.9471	108.398	80.4883	108.398	80.7699
112.793	81.4547	112.793	81.1606	112.793	80.691	112.793	80.9812
117.188	81.9284	117.188	81.6273	117.188	81.0925	117.188	81.4173
120.117	82.2101	120.117	81.9115	120.117	81.2773	120.117	81.6526
124.512	82.2504	124.512	82.0169	124.512	81.6257	124.512	81.8634
128.906	82.3874	128.906	82.2038	128.906	81.9152	128.906	82.0914
133.301	82.6817	133.301	82.4649	133.301	82.1791	133.301	82.3609
139.16	82.8713	139.16	82.5932	139.16	82.2375	139.16	82.467
143.555	82.9118	143.555	82.602	143.555	82.2845	143.555	82.5017
147.949	83.0607	147.949	82.7686	147.949	82.4702	147.949	82.6741
153.809	83.0736	153.809	82.7677	153.809	82.5111	153.809	82.6972
159.668	83.297	159.668	82.9796	159.668	82.6994	159.668	82.8997
165.527	83.36	165.527	83.0221	165.527	82.7551	165.527	82.9532
171.387	83.4462	171.387	83.0666	171.387	82.6796	171.387	82.9467
177.246	83.4669	177.246	83.0236	177.246	82.6151	177.246	82.907
183.105	83.3858	183.105	82.9653	183.105	82.576	183.105	82.8532
188.965	83.2682	188.965	82.8212	188.965	82.4595	188.965	82.7286
196.289	83.2667	196.289	82.7808	196.289	82.3706	196.289	82.6729
203.613	83.2245	203.613	82.6804	203.613	82.1183	203.613	82.5116
210.938	83.0258	210.938	82.5189	210.938	82.0371	210.938	82.3806
218.262	82.7719	218.262	82.3113	218.262	82.0609	218.262	82.2772
225.586	82.7586	225.586	82.2757	225.586	81.8913	225.586	82.1798
232.91	82.6665	232.91	82.0504	232.91	81.5978	232.91	81.9511
241.699	82.215	241.699	81.7881	241.699	81.3351	241.699	81.646
250.488	81.8149	250.488	81.308	250.488	81.4273	250.488	81.4732
259.277	81.0304	259.277	80.7221	259.277	81.8254	259.277	81.3926
268.066	81.7551	268.066	80.3615	268.066	81.8465	268.066	81.4631
276.855	82.6335	276.855	81.1335	276.855	81.0351	276.855	81.4208
287.109	82.527	287.109	81.3594	287.109	80.6198	287.109	81.2598
297.363	82.657	297.363	81.0298	297.363	80.3021	297.363	81.0599
307.617	82.7928	307.617	81.3595	307.617	80.1707	307.617	81.1351
319.336	82.3905	319.336	80.8936	319.336	79.752	319.336	80.7074
329.59	82.1439	329.59	80.9512	329.59	79.492	329.59	80.5456
341.309	82.2658	341.309	80.5536	341.309	79.5056	341.309	80.4694
353.027	82.2951	353.027	80.6382	353.027	78.8631	353.027	80.2441
366.211	82.2916	366.211	80.5953	366.211	78.9035	366.211	80.2456
379.395	82.3449	379.395	80.7685	379.395	78.9337	379.395	80.3265
392.578	82.2278	392.578	80.5431	392.578	78.4138	392.578	80.0253
405.762	82.1682	405.762	80.2655	405.762	78.3867	405.762	79.9107
420.41	82.2825	420.41	80.4896	420.41	78.1999	420.41	79.9498
435.059	82.1882	435.059	80.4661	435.059	78.1678	435.059	79.8998
451.172	82.4706	451.172	80.5321	451.172	77.5644	451.172	79.8166
465.82	82.2001	465.82	80.4164	465.82	77.9739	465.82	79.8202
483.398	82.2843	483.398	80.8571	483.398	78.1924	483.398	80.0668
499.512	83.1061	499.512	81.1487	499.512	78.6248	499.512	80.5842
517.09	83.2493	517.09	81.2845	517.09	78.1771	517.09	80.5351
536.133	83.3651	536.133	81.1914	536.133	77.697	536.133	80.4061
555.176	83.4021	555.176	81.5841	555.176	77.2806	555.176	80.4447
574.219	83.501	574.219	81.5342	574.219	77.2225	574.219	80.4505
594.727	83.4972	594.727	81.4387	594.727	77.0112	594.727	80.3627
615.234	84.6207	615.234	82.5889	615.234	77.2326	615.234	81.2927
637.207	84.4741	637.207	82.5527	637.207	77.4901	637.207	81.2739
659.18	84.0863	659.18	82.0906	659.18	77.0919	659.18	80.8562
682.617	84.4006	682.617	82.3911	682.617	77.1648	682.617	81.113
707.52	84.1633	707.52	82.3195	707.52	76.7491	707.52	80.9014
732.422	83.991	732.422	81.962	732.422	77.0992	732.422	80.7717
757.324	84.5718	757.324	82.5254	757.324	77.181	757.324	81.2378
785.156	84.1303	785.156	82.0415	785.156	76.7504	785.156	80.7828
811.523	84.4984	811.523	82.2086	811.523	77.6081	811.523	81.1859
840.82	84.948	840.82	82.2624	840.82	77.1628	840.82	81.3029
870.117	85.4234	870.117	82.3031	870.117	77.0968	870.117	81.5241
900.879	85.6778	900.879	82.6563	900.879	76.8588	900.879	81.7228
933.105	85.1518	933.105	82.1229	933.105	76.7336	933.105	81.2659
965.332	84.806	965.332	81.7926	965.332	76.6617	965.332	80.9776
1,000.49	85.7007	1,000.49	81.697	1,000.49	76.565	1,000.49	81.3749
1,035.64	85.4425	1,035.64	81.0865	1,035.64	75.041	1,035.64	80.8137
1,072.27	84.5376	1,072.27	80.0588	1,072.27	73.4003	1,072.27	79.7764
1,108.89	82.9542	1,108.89	78.0494	1,108.89	71.18	1,108.89	77.9963
1,148.44	80.557	1,148.44	75.5922	1,148.44	67.689	1,148.44	75.4744
1,189.45	77.6084	1,189.45	73.3146	1,189.45	66.0258	1,189.45	72.8518
1,230.47	73.0409	1,230.47	68.1257	1,230.47	64.7243	1,230.47	68.6254
1,274.41	75.0399	1,274.41	71.9112	1,274.41	66.7742	1,274.41	71.1495
1,319.82	77.9137	1,319.82	74.8344	1,319.82	70.2898	1,319.82	74.1705
1,366.7	79.3517	1,366.7	76.3211	1,366.7	71.0164	1,366.7	75.4808
1,413.57	80.4666	1,413.57	77.3995	1,413.57	71.2827	1,413.57	76.4349
1,463.38	80.6425	1,463.38	77.0305	1,463.38	70.1792	1,463.38	76.2392
1,516.11	80.3306	1,516.11	76.6742	1,516.11	70.7721	1,516.11	76.0426
1,568.85	80.4714	1,568.85	76.2931	1,568.85	69.3486	1,568.85	75.8032
1,624.51	81.5724	1,624.51	77.0562	1,624.51	70.5423	1,624.51	76.8134
1,681.64	81.8174	1,681.64	77.6777	1,681.64	71.412	1,681.64	77.2532
1,741.7	82.6214	1,741.7	78.5106	1,741.7	71.6519	1,741.7	77.9928
1,803.22	82.682	1,803.22	78.5957	1,803.22	69.0736	1,803.22	77.8122
1,866.21	81.6056	1,866.21	77.9565	1,866.21	72.0838	1,866.21	77.3257
1,932.13	82.1351	1,932.13	78.6039	1,932.13	71.4553	1,932.13	77.7313
1,999.51	82.6619	1,999.51	77.4122	1,999.51	68.2306	1,999.51	77.3807
2,069.82	83.9083	2,069.82	77.7219	2,069.82	68.895	2,069.82	78.3476
2,143.07	83.774	2,143.07	77.7195	2,143.07	69.3449	2,143.07	78.2824
2,219.24	82.5213	2,219.24	76.9751	2,219.24	69.2268	2,219.24	77.2433
2,296.88	81.4106	2,296.88	76.8925	2,296.88	69.3621	2,296.88	76.5365
2,378.91	81.7988	2,378.91	77.9781	2,378.91	69.2182	2,378.91	77.0985
2,462.4	82.7432	2,462.4	77.7366	2,462.4	68.7419	2,462.4	77.5599
2,548.83	79.8671	2,548.83	75.8942	2,548.83	68.3635	2,548.83	75.2208
2,639.65	75.1339	2,639.65	72.505	2,639.65	67.3361	2,639.65	71.5059
2,731.93	74.7218	2,731.93	72.8857	2,731.93	66.7835	2,731.93	71.3616
2,828.61	76.3197	2,828.61	75.7908	2,828.61	68.1274	2,828.61	73.4831
2,928.22	79.8476	2,928.22	78.7067	2,928.22	70.2692	2,928.22	76.5334
3,030.76	80.7792	3,030.76	80.1351	3,030.76	71.1138	3,030.76	77.6895
3,137.7	82.0499	3,137.7	81.0633	3,137.7	71.7901	3,137.7	78.729
3,249.02	82.2452	3,249.02	81.3109	3,249.02	72.223	3,249.02	78.9751
3,363.28	82.8851	3,363.28	81.5901	3,363.28	71.907	3,363.28	79.3465
3,481.93	83.58	3,481.93	81.7175	3,481.93	71.8744	3,481.93	79.7183
3,604.98	83.9111	3,604.98	82.3355	3,604.98	72.8278	3,604.98	80.234
3,732.42	84.4811	3,732.42	82.5188	3,732.42	72.7465	3,732.42	80.5732
3,864.26	82.4361	3,864.26	81.4165	3,864.26	71.74	3,864.26	79.0548
4,000.49	80.4319	4,000.49	80.4195	4,000.49	70.8685	4,000.49	77.6729
4,141.11	80.3732	4,141.11	80.0383	4,141.11	70.9927	4,141.11	77.4699
4,287.6	81.0534	4,287.6	80.3135	4,287.6	71.8904	4,287.6	77.9793
4,438.48	81.331	4,438.48	80.7429	4,438.48	71.6812	4,438.48	78.2705
4,595.21	81.1121	4,595.21	80.9317	4,595.21	71.2429	4,595.21	78.2328
4,756.35	82.5485	4,756.35	82.0103	4,756.35	71.5143	4,756.35	79.3739
4,924.8	82.6756	4,924.8	82.794	4,924.8	71.7681	4,924.8	79.8583
5,097.66	83.4152	5,097.66	82.2813	5,097.66	71.3335	5,097.66	79.8603
5,277.83	84.3668	5,277.83	82.6837	5,277.83	70.7094	5,277.83	80.449
5,463.87	84.4972	5,463.87	82.4424	5,463.87	70.8037	5,463.87	80.4085
5,657.23	84.6332	5,657.23	82.1999	5,657.23	70.8757	5,657.23	80.3769
5,856.45	84.5472	5,856.45	82.0803	5,856.45	71.357	5,856.45	80.3125
6,062.99	84.9343	6,062.99	83.0629	6,062.99	71.3775	6,062.99	80.9358
6,276.86	84.9352	6,276.86	82.0555	6,276.86	71.4958	6,276.86	80.5161
6,498.05	85.4837	6,498.05	82.4754	6,498.05	71.2769	6,498.05	80.9668
6,726.56	85.3303	6,726.56	82.5052	6,726.56	71.488	6,726.56	80.9074
6,963.87	85.1754	6,963.87	81.9679	6,963.87	68.9148	6,963.87	80.4858
7,209.96	85.2964	7,209.96	82.3836	7,209.96	69.5097	7,209.96	80.7422
7,464.84	84.7007	7,464.84	81.4529	7,464.84	68.2845	7,464.84	79.9897
7,727.05	85.2323	7,727.05	81.6427	7,727.05	68.5117	7,727.05	80.3807
7,999.51	84.685	7,999.51	81.1064	7,999.51	68.5767	7,999.51	79.86
8,282.23	85.1081	8,282.23	81.4532	8,282.23	67.9392	8,282.23	80.2176
8,573.73	84.9697	8,573.73	80.9868	8,573.73	65.9045	8,573.73	79.9114
8,876.95	84.7792	8,876.95	80.6298	8,876.95	63.6564	8,876.95	79.6274
9,188.96	84.4526	9,188.96	79.8766	9,188.96	62.1886	9,188.96	79.1424
9,514.16	84.5806	9,514.16	79.9631	9,514.16	62.1577	9,514.16	79.2551
9,849.61	84.5789	9,849.61	80.1266	9,849.61	62.8245	9,849.61	79.3155
10,196.8	85.105	10,196.8	79.9815	10,196.8	62.3504	10,196.8	79.6171
10,555.7	85.3474	10,555.7	79.8264	10,555.7	60.6462	10,555.7	79.7272
10,927.7	85.5003	10,927.7	79.7733	10,927.7	60.1842	10,927.7	79.8187
11,313	85.7115	11,313	79.6806	11,313	61.2352	11,313	79.9539
11,712.9	85.8898	11,712.9	79.4494	11,712.9	60.7049	11,712.9	80.0243
12,126	86.066	12,126	79.156	12,126	58.4059	12,126	80.0788
12,553.7	86.1142	12,553.7	78.7835	12,553.7	56.7376	12,553.7	80.0308
12,996.1	85.9469	12,996.1	78.1723	12,996.1	57.2875	12,996.1	79.7767
13,454.6	85.5703	13,454.6	77.17	13,454.6	57.9256	13,454.6	79.2902
13,929.2	85.3296	13,929.2	76.2325	13,929.2	57.5896	13,929.2	78.9379
14,419.9	85.3664	14,419.9	75.3552	14,419.9	57.9053	14,419.9	78.8514
14,928.2	85.6834	14,928.2	74.2055	14,928.2	60.8467	14,928.2	79.0268
15,455.6	85.8054	15,455.6	74.3928	15,455.6	62.6172	15,455.6	79.1709
16,000.5	85.5514	16,000.5	74.7859	16,000.5	62.507	16,000.5	78.9826
16,564.5	85.1317	16,564.5	74.4537	16,564.5	61.6943	16,564.5	78.5678
17,148.9	84.7415	17,148.9	73.9032	17,148.9	61.8554	17,148.9	78.1669
17,752.4	84.475	17,752.4	72.9097	17,752.4	60.7872	17,752.4	77.8211
18,379.4	84.0184	18,379.4	71.7501	18,379.4	59.9154	18,379.4	77.3016
19,026.9	83.3667	19,026.9	70.8427	19,026.9	59.1362	19,026.9	76.6294
19,697.8	82.4442	19,697.8	69.5547	19,697.8	57.3745	19,697.8	75.674
19,999.5	81.9651	19,999.5	68.879	19,999.5	56.6562	19,999.5	75.18
