"Early Reflections"											
"Floor Bounce"		"Ceiling Bounce"		"Front Wall Bounce"		"Side Wall Bounce"		"Rear Wall Bounce"		"Total Early Reflection"	
"Frequency [Hz]"	"Sound Pessure Level [dB]  / [2.83V 1m] "	"Frequency [Hz]"	"Sound Pessure Level [dB]  / [2.83V 1m] "	"Frequency [Hz]"	"Sound Pessure Level [dB]  / [2.83V 1m] "	"Frequency [Hz]"	"Sound Pessure Level [dB]  / [2.83V 1m] "	"Frequency [Hz]"	"Sound Pessure Level [dB]  / [2.83V 1m] "	"Frequency [Hz]"	"Sound Pessure Level [dB]  / [2.83V 1m] "
20.5078	68.2038	20.5078	61.3026	20.5078	66.2356	20.5078	63.5924	20.5078	70.5738	20.5078	66.2805
21.9727	68.5151	21.9727	71.6759	21.9727	68.4449	21.9727	70.4722	21.9727	77.5538	21.9727	71.8345
23.4375	76.0376	23.4375	76.7269	23.4375	75.7779	23.4375	76.616	23.4375	81.3719	23.4375	77.3012
24.9023	78.4628	24.9023	78.2223	24.9023	77.9697	24.9023	78.2664	24.9023	83.069	24.9023	79.1288
26.3672	81.1632	26.3672	81.7421	26.3672	80.8622	26.3672	81.7316	26.3672	86.3062	26.3672	82.3488
27.832	83.9527	27.832	84.4399	27.832	83.6431	27.832	84.5218	27.832	88.6536	27.832	85.0052
29.2969	86.8692	29.2969	87.7176	29.2969	86.7419	29.2969	87.616	29.2969	91.3126	29.2969	87.9915
30.7617	90.1018	30.7617	90.8466	30.7617	90.0452	30.7617	90.8395	30.7617	94.0957	30.7617	91.1171
32.2266	93.4655	32.2266	94.0736	32.2266	93.3698	32.2266	94.1394	32.2266	97.0553	32.2266	94.3446
33.6914	96.0842	33.6914	96.601	33.6914	95.9859	33.6914	96.7165	33.6914	99.4298	33.6914	96.8859
35.1562	98.8292	35.1562	99.2596	35.1562	98.7177	35.1562	99.4221	35.1562	101.851	35.1562	99.5386
36.6211	101.119	36.6211	101.562	36.6211	101.028	36.6211	101.716	36.6211	103.982	36.6211	101.805
38.0859	103.396	38.0859	103.754	38.0859	103.289	38.0859	103.939	38.0859	105.988	38.0859	103.999
39.5508	105.282	39.5508	105.617	39.5508	105.185	39.5508	105.793	39.5508	107.611	39.5508	105.825
41.0156	106.861	41.0156	107.124	41.0156	106.752	41.0156	107.327	41.0156	108.975	41.0156	107.339
42.4805	108.044	42.4805	108.248	42.4805	107.923	42.4805	108.472	42.4805	109.987	42.4805	108.47
43.9453	108.839	43.9453	108.994	43.9453	108.713	43.9453	109.235	43.9453	110.625	43.9453	109.221
45.4102	109.409	45.4102	109.516	45.4102	109.27	45.4102	109.776	45.4102	111.058	45.4102	109.749
46.875	109.776	46.875	109.856	46.875	109.636	46.875	110.118	46.875	111.288	46.875	110.083
48.3398	109.924	48.3398	110.001	48.3398	109.784	48.3398	110.267	48.3398	111.364	48.3398	110.22
51.2695	110.17	51.2695	110.078	51.2695	109.997	51.2695	110.387	51.2695	111.233	51.2695	110.335
52.7344	110.135	52.7344	110.039	52.7344	109.964	52.7344	110.34	52.7344	111.121	52.7344	110.285
54.1992	110.043	54.1992	109.967	54.1992	109.883	54.1992	110.257	54.1992	110.992	54.1992	110.196
55.6641	109.965	55.6641	109.858	55.6641	109.799	55.6641	110.156	55.6641	110.83	55.6641	110.093
58.5938	109.799	58.5938	109.602	58.5938	109.609	58.5938	109.93	58.5938	110.482	58.5938	109.862
60.0586	109.747	60.0586	109.522	60.0586	109.556	60.0586	109.852	60.0586	110.323	60.0586	109.783
62.9883	109.528	62.9883	109.247	62.9883	109.33	62.9883	109.583	62.9883	109.935	62.9883	109.515
64.4531	109.429	64.4531	109.129	64.4531	109.225	64.4531	109.474	64.4531	109.798	64.4531	109.404
67.3828	109.315	67.3828	108.956	67.3828	109.093	67.3828	109.32	67.3828	109.577	67.3828	109.249
68.8477	109.274	68.8477	108.882	68.8477	109.043	68.8477	109.258	68.8477	109.483	68.8477	109.188
71.7773	109.216	71.7773	108.786	71.7773	108.983	71.7773	109.163	71.7773	109.303	71.7773	109.096
74.707	109.239	74.707	108.789	74.707	109.01	74.707	109.144	74.707	109.187	74.707	109.085
77.6367	109.183	77.6367	108.698	77.6367	108.942	77.6367	109.065	77.6367	109.074	77.6367	109.006
79.1016	109.222	79.1016	108.698	79.1016	108.972	79.1016	109.073	79.1016	109.031	79.1016	109.017
82.0312	109.299	82.0312	108.684	82.0312	109.032	82.0312	109.071	82.0312	108.867	82.0312	109.021
84.9609	108.837	84.9609	108.361	84.9609	108.597	84.9609	108.719	84.9609	108.704	84.9609	108.658
87.8906	108.868	87.8906	108.386	87.8906	108.582	87.8906	108.805	87.8906	109.016	87.8906	108.732
90.8203	108.791	90.8203	108.242	90.8203	108.514	90.8203	108.674	90.8203	108.81	90.8203	108.614
95.2148	109.067	95.2148	108.357	95.2148	108.818	95.2148	108.811	95.2148	108.581	95.2148	108.768
98.1445	109.382	98.1445	108.565	98.1445	109.118	98.1445	108.931	98.1445	108.431	98.1445	108.942
101.074	109.461	101.074	108.635	101.074	109.139	101.074	109.041	101.074	108.544	101.074	109.02
105.469	109.391	105.469	108.566	105.469	109.08	105.469	108.937	105.469	108.592	105.469	108.952
108.398	109.633	108.398	108.788	108.398	109.347	108.398	109.111	108.398	108.617	108.398	109.15
112.793	109.681	112.793	108.79	112.793	109.399	112.793	109.135	112.793	108.533	112.793	109.172
117.188	110.115	117.188	109.238	117.188	109.807	117.188	109.624	117.188	109.068	117.188	109.632
120.117	110.406	120.117	109.478	120.117	110.056	120.117	109.861	120.117	109.322	120.117	109.881
124.512	110.479	124.512	109.523	124.512	110.139	124.512	109.924	124.512	109.356	124.512	109.946
128.906	110.217	128.906	109.205	128.906	109.902	128.906	109.646	128.906	108.96	128.906	109.666
133.301	109.763	133.301	108.799	133.301	109.421	133.301	109.325	133.301	108.875	133.301	109.298
139.16	109.632	139.16	108.462	139.16	109.229	139.16	108.979	139.16	108.58	139.16	109.029
143.555	109.938	143.555	108.705	143.555	109.527	143.555	109.112	143.555	108.445	143.555	109.217
147.949	109.907	147.949	108.627	147.949	109.487	147.949	109.078	147.949	108.395	147.949	109.176
153.809	109.88	153.809	108.415	153.809	109.428	153.809	108.983	153.809	108.135	153.809	109.073
159.668	110.033	159.668	108.269	159.668	109.497	159.668	109.038	159.668	108.285	159.668	109.135
165.527	109.499	165.527	107.739	165.527	108.997	165.527	108.586	165.527	107.986	165.527	108.665
171.387	109.508	171.387	107.862	171.387	108.929	171.387	108.598	171.387	108.215	171.387	108.686
177.246	109.513	177.246	107.978	177.246	109.259	177.246	108.453	177.246	107.93	177.246	108.713
183.105	108.467	183.105	107.669	183.105	108.455	183.105	107.745	183.105	106.905	183.105	107.942
188.965	109.003	188.965	107.86	188.965	108.752	188.965	107.754	188.965	107.239	188.965	108.16
196.289	110.135	196.289	108.562	196.289	109.793	196.289	108.611	196.289	107.566	196.289	109.051
203.613	109.905	203.613	108.514	203.613	109.675	203.613	108.515	203.613	107.415	203.613	108.93
210.938	110.15	210.938	108.413	210.938	109.747	210.938	108.536	210.938	107.003	210.938	108.954
218.262	110.231	218.262	108.2	218.262	109.711	218.262	108.61	218.262	107.101	218.262	108.967
225.586	110.335	225.586	108.163	225.586	109.885	225.586	108.715	225.586	107.155	225.586	109.077
232.91	110.232	232.91	108.223	232.91	109.863	232.91	108.628	232.91	106.982	232.91	109.016
241.699	110.117	241.699	108.032	241.699	109.638	241.699	108.506	241.699	106.841	241.699	108.853
250.488	110.25	250.488	107.756	250.488	109.737	250.488	108.433	250.488	106.498	250.488	108.831
259.277	110.239	259.277	108.142	259.277	109.838	259.277	108.674	259.277	106.844	259.277	109.007
268.066	109.806	268.066	107.487	268.066	109.385	268.066	108.091	268.066	106.352	268.066	108.49
276.855	109.943	276.855	107.594	276.855	109.579	276.855	108.262	276.855	106.208	276.855	108.636
287.109	109.813	287.109	107.668	287.109	109.511	287.109	108.225	287.109	106.301	287.109	108.593
297.363	109.962	297.363	107.906	297.363	109.802	297.363	108.308	297.363	106.233	297.363	108.761
307.617	110.045	307.617	108.134	307.617	109.852	307.617	108.416	307.617	106.303	307.617	108.855
319.336	109.809	319.336	107.567	319.336	109.454	319.336	108.149	319.336	106.01	319.336	108.518
329.59	109.609	329.59	107.719	329.59	109.348	329.59	108.24	329.59	105.992	329.59	108.499
341.309	109.37	341.309	107.167	341.309	108.997	341.309	107.492	341.309	105.746	341.309	108.013
353.027	109.553	353.027	107.139	353.027	109.403	353.027	107.87	353.027	105.398	353.027	108.286
366.211	109.825	366.211	107.224	366.211	109.549	366.211	107.904	366.211	105.145	366.211	108.386
379.395	109.75	379.395	108.028	379.395	109.54	379.395	108.568	379.395	105.895	379.395	108.726
392.578	109.205	392.578	107.045	392.578	108.817	392.578	107.777	392.578	105.638	392.578	108.009
405.762	109.295	405.762	106.536	405.762	109.066	405.762	107.077	405.762	104.807	405.762	107.769
420.41	110.255	420.41	107.192	420.41	110.039	420.41	108.079	420.41	105.052	420.41	108.684
435.059	109.868	435.059	107.275	435.059	110.052	435.059	108.269	435.059	105.491	435.059	108.722
451.172	110.457	451.172	107.254	451.172	110.603	451.172	108.765	451.172	105.896	451.172	109.207
465.82	109.684	465.82	107.078	465.82	109.958	465.82	108.305	465.82	105.843	465.82	108.677
483.398	109.486	483.398	107.255	483.398	109.907	483.398	108.272	483.398	105.641	483.398	108.621
499.512	109.68	499.512	106.699	499.512	110.041	499.512	108.052	499.512	105.446	499.512	108.567
517.09	109.217	517.09	107.059	517.09	109.737	517.09	108.096	517.09	106.179	517.09	108.478
536.133	109.095	536.133	105.687	536.133	109.95	536.133	107.165	536.133	105.034	536.133	108.059
555.176	108.922	555.176	106.206	555.176	109.897	555.176	107.398	555.176	104.761	555.176	108.109
574.219	108.391	574.219	105.349	574.219	108.97	574.219	106.351	574.219	104.273	574.219	107.23
594.727	108.277	594.727	105.25	594.727	108.644	594.727	105.599	594.727	104.081	594.727	106.834
615.234	109.125	615.234	105.825	615.234	109.291	615.234	106.372	615.234	103.5	615.234	107.48
637.207	110.311	637.207	106.272	637.207	110.641	637.207	107.694	637.207	105.608	637.207	108.768
659.18	108.634	659.18	106.893	659.18	109.793	659.18	107.461	659.18	103.412	659.18	108.042
682.617	108.544	682.617	106.871	682.617	109.518	682.617	106.84	682.617	104.041	682.617	107.743
707.52	109.946	707.52	106.24	707.52	110.001	707.52	106.429	707.52	103.462	707.52	107.968
732.422	108.1	732.422	106.074	732.422	110.077	732.422	106.476	732.422	102.175	732.422	107.673
757.324	108.14	757.324	107.942	757.324	110.278	757.324	106.575	757.324	103.291	757.324	108.017
785.156	108.582	785.156	107.868	785.156	109.96	785.156	106.357	785.156	102.242	785.156	107.826
811.523	108.552	811.523	107.342	811.523	110.053	811.523	106.115	811.523	102.398	811.523	107.745
840.82	108.653	840.82	107.776	840.82	110.376	840.82	106.339	840.82	101.62	840.82	107.991
870.117	108.835	870.117	106.983	870.117	110.377	870.117	106.525	870.117	100.613	870.117	107.963
900.879	109.543	900.879	107.774	900.879	110.797	900.879	106.665	900.879	100.352	900.879	108.372
933.105	109.47	933.105	106.776	933.105	110.719	933.105	106.514	933.105	100.035	933.105	108.187
965.332	109.833	965.332	107.259	965.332	110.695	965.332	106.288	965.332	99.4165	965.332	108.209
1,000.49	110.5	1,000.49	106.632	1,000.49	110.647	1,000.49	106.244	1,000.49	99.4189	1,000.49	108.242
1,035.64	110.373	1,035.64	106.227	1,035.64	110.552	1,035.64	106.117	1,035.64	98.6912	1,035.64	108.1
1,072.27	110.43	1,072.27	105.073	1,072.27	110.078	1,072.27	105.417	1,072.27	98.6754	1,072.27	107.642
1,108.89	110.026	1,108.89	104.74	1,108.89	110.477	1,108.89	105.75	1,108.89	98.1075	1,108.89	107.803
1,148.44	110.241	1,148.44	104.475	1,148.44	110.566	1,148.44	105.656	1,148.44	99.9448	1,148.44	107.881
1,189.45	109.151	1,189.45	103.254	1,189.45	110.405	1,189.45	104.711	1,189.45	100.442	1,189.45	107.336
1,230.47	108.787	1,230.47	100.828	1,230.47	109.929	1,230.47	105.226	1,230.47	100.454	1,230.47	107.05
1,274.41	108.317	1,274.41	99.8675	1,274.41	109.189	1,274.41	104.428	1,274.41	97.5336	1,274.41	106.295
1,319.82	107.293	1,319.82	97.8511	1,319.82	109.108	1,319.82	103.973	1,319.82	98.3095	1,319.82	105.933
1,366.7	106.84	1,366.7	97.7449	1,366.7	109.055	1,366.7	104.175	1,366.7	98.5554	1,366.7	105.889
1,413.57	105.938	1,413.57	99.6704	1,413.57	108.771	1,413.57	103.476	1,413.57	97.3151	1,413.57	105.449
1,463.38	104.962	1,463.38	99.5146	1,463.38	109.875	1,463.38	104.598	1,463.38	97.7794	1,463.38	106.293
1,516.11	105.359	1,516.11	100.303	1,516.11	110.568	1,516.11	105.445	1,516.11	99.5525	1,516.11	107.024
1,568.85	105.705	1,568.85	102.19	1,568.85	111.423	1,568.85	106.643	1,568.85	99.8698	1,568.85	107.955
1,624.51	106.109	1,624.51	104.099	1,624.51	111.458	1,624.51	106.329	1,624.51	100.276	1,624.51	107.999
1,681.64	106.854	1,681.64	100.263	1,681.64	111.32	1,681.64	105.414	1,681.64	97.5836	1,681.64	107.585
1,741.7	105.741	1,741.7	104.169	1,741.7	110.609	1,741.7	105.436	1,741.7	99.33	1,741.7	107.223
1,803.22	105.573	1,803.22	104.743	1,803.22	110.737	1,803.22	105.224	1,803.22	97.0603	1,803.22	107.234
1,866.21	106.604	1,866.21	104.624	1,866.21	111.321	1,866.21	105.767	1,866.21	99.1119	1,866.21	107.823
1,932.13	105.972	1,932.13	103.254	1,932.13	111.621	1,932.13	105.755	1,932.13	97.7701	1,932.13	107.872
1,999.51	105.632	1,999.51	105.593	1,999.51	111.236	1,999.51	106.568	1,999.51	98.4512	1,999.51	107.955
2,069.82	105.154	2,069.82	106.728	2,069.82	110.601	2,069.82	106.003	2,069.82	97.5205	2,069.82	107.49
2,143.07	106.285	2,143.07	106.891	2,143.07	110.026	2,143.07	105.644	2,143.07	97.5596	2,143.07	107.193
2,219.24	107.429	2,219.24	107.528	2,219.24	110.392	2,219.24	106.294	2,219.24	99.3479	2,219.24	107.764
2,296.88	107.734	2,296.88	105.757	2,296.88	110.871	2,296.88	106.138	2,296.88	98.3034	2,296.88	107.83
2,378.91	108.298	2,378.91	106.535	2,378.91	109.809	2,378.91	105.799	2,378.91	99.5801	2,378.91	107.358
2,462.4	107.688	2,462.4	105.36	2,462.4	109.466	2,462.4	104.917	2,462.4	97.4642	2,462.4	106.732
2,548.83	106.918	2,548.83	105.336	2,548.83	111.101	2,548.83	105.945	2,548.83	97.3161	2,548.83	107.786
2,639.65	106.428	2,639.65	104.305	2,639.65	111.562	2,639.65	106.146	2,639.65	97.9714	2,639.65	108.015
2,731.93	106.514	2,731.93	103.903	2,731.93	110.607	2,731.93	105.246	2,731.93	97.1975	2,731.93	107.197
2,828.61	106.412	2,828.61	103.576	2,828.61	109.7	2,828.61	104.538	2,828.61	96.347	2,828.61	106.458
2,928.22	106.164	2,928.22	103.521	2,928.22	110.065	2,928.22	104.965	2,928.22	96.9329	2,928.22	106.752
3,030.76	105.787	3,030.76	104.328	3,030.76	110.572	3,030.76	105.771	3,030.76	97.514	3,030.76	107.275
3,137.7	106.266	3,137.7	104.097	3,137.7	110.643	3,137.7	106.07	3,137.7	97.7571	3,137.7	107.428
3,249.02	106.938	3,249.02	103.653	3,249.02	110.581	3,249.02	106.23	3,249.02	98.1116	3,249.02	107.485
3,363.28	107.68	3,363.28	103.316	3,363.28	110.773	3,363.28	106.098	3,363.28	97.7647	3,363.28	107.616
3,481.93	108.12	3,481.93	103.459	3,481.93	110.887	3,481.93	106.389	3,481.93	97.305	3,481.93	107.813
3,604.98	108.208	3,604.98	103.695	3,604.98	111.143	3,604.98	106.95	3,604.98	97.9791	3,604.98	108.139
3,732.42	107.46	3,732.42	104.038	3,732.42	111.096	3,732.42	107.229	3,732.42	98.3024	3,732.42	108.136
3,864.26	107.863	3,864.26	103.639	3,864.26	109.795	3,864.26	106.412	3,864.26	98.0586	3,864.26	107.241
4,000.49	108.349	4,000.49	103.902	4,000.49	110.665	4,000.49	106.511	4,000.49	97.3632	4,000.49	107.778
4,141.11	108.142	4,141.11	103.455	4,141.11	110.843	4,141.11	106.789	4,141.11	97.8383	4,141.11	107.912
4,287.6	108.641	4,287.6	103.006	4,287.6	110.363	4,287.6	106.121	4,287.6	97.5418	4,287.6	107.514
4,438.48	108.838	4,438.48	102.915	4,438.48	110.583	4,438.48	106.311	4,438.48	97.0463	4,438.48	107.702
4,595.21	108.859	4,595.21	102.986	4,595.21	110.862	4,595.21	106.77	4,595.21	97.8104	4,595.21	107.992
4,756.35	108.283	4,756.35	102.315	4,756.35	110.785	4,756.35	106.567	4,756.35	96.7245	4,756.35	107.78
4,924.8	107.928	4,924.8	102.336	4,924.8	109.863	4,924.8	106.079	4,924.8	96.8092	4,924.8	107.107
5,097.66	107.481	5,097.66	102.952	5,097.66	110.87	5,097.66	106.708	5,097.66	96.1483	5,097.66	107.791
5,277.83	107.006	5,277.83	102.672	5,277.83	110.007	5,277.83	106.317	5,277.83	97.2219	5,277.83	107.158
5,463.87	107.247	5,463.87	102.558	5,463.87	110.37	5,463.87	106.251	5,463.87	95.8924	5,463.87	107.339
5,657.23	106.516	5,657.23	102.781	5,657.23	110.488	5,657.23	106.771	5,657.23	96.7378	5,657.23	107.506
5,856.45	106.484	5,856.45	102.489	5,856.45	110.861	5,856.45	106.828	5,856.45	96.1454	5,856.45	107.71
6,062.99	107.06	6,062.99	101.932	6,062.99	110.796	6,062.99	106.976	6,062.99	97.2065	6,062.99	107.765
6,276.86	106.222	6,276.86	101.616	6,276.86	110.958	6,276.86	106.991	6,276.86	96.0636	6,276.86	107.766
6,498.05	105.706	6,498.05	101.555	6,498.05	110.718	6,498.05	106.457	6,498.05	95.3282	6,498.05	107.412
6,726.56	105.623	6,726.56	101.051	6,726.56	111.033	6,726.56	106.85	6,726.56	95.2699	6,726.56	107.697
6,963.87	105.682	6,963.87	100.967	6,963.87	110.506	6,963.87	106.022	6,963.87	94.7384	6,963.87	107.134
7,209.96	105.807	7,209.96	101.034	7,209.96	110.771	7,209.96	106.466	7,209.96	94.3481	7,209.96	107.433
7,464.84	105.947	7,464.84	100.649	7,464.84	110.25	7,464.84	105.77	7,464.84	93.8869	7,464.84	106.92
7,727.05	106.366	7,727.05	100.643	7,727.05	110.605	7,727.05	105.837	7,727.05	94.4146	7,727.05	107.189
7,999.51	105.616	7,999.51	100.76	7,999.51	110.406	7,999.51	105.477	7,999.51	93.4225	7,999.51	106.899
8,282.23	105.614	8,282.23	100.905	8,282.23	110.577	8,282.23	105.768	8,282.23	93.4295	8,282.23	107.088
8,573.73	105.776	8,573.73	100.912	8,573.73	110.727	8,573.73	105.656	8,573.73	93.5732	8,573.73	107.162
8,876.95	105.436	8,876.95	101.098	8,876.95	110.572	8,876.95	105.193	8,876.95	92.6675	8,876.95	106.916
9,188.96	105.892	9,188.96	101.158	9,188.96	110.99	9,188.96	105.578	9,188.96	92.6647	9,188.96	107.316
9,514.16	106.22	9,514.16	101.798	9,514.16	110.743	9,514.16	105.209	9,514.16	92.5791	9,514.16	107.118
9,849.61	105.762	9,849.61	102.24	9,849.61	110.537	9,849.61	105.146	9,849.61	91.0777	9,849.61	106.944
10,196.8	106.427	10,196.8	102.626	10,196.8	110.008	10,196.8	104.981	10,196.8	91.4971	10,196.8	106.667
10,555.7	106.663	10,555.7	102.802	10,555.7	109.326	10,555.7	104.488	10,555.7	91.7824	10,555.7	106.19
10,927.7	107.481	10,927.7	102.965	10,927.7	108.98	10,927.7	104.403	10,927.7	91.424	10,927.7	106.106
11,313	107.758	11,313	103.379	11,313	108.792	11,313	104.35	11,313	91.2048	11,313	106.065
11,712.9	108.387	11,712.9	103.766	11,712.9	108.816	11,712.9	104.317	11,712.9	90.642	11,712.9	106.204
12,126	108.099	12,126	104.255	12,126	108.725	12,126	104.161	12,126	90.4901	12,126	106.101
12,553.7	108.879	12,553.7	104.722	12,553.7	108.575	12,553.7	104.134	12,553.7	89.7782	12,553.7	106.212
12,996.1	109.321	12,996.1	104.889	12,996.1	108.537	12,996.1	103.991	12,996.1	89.2384	12,996.1	106.272
13,454.6	110.18	13,454.6	104.869	13,454.6	108.72	13,454.6	103.739	13,454.6	88.9173	13,454.6	106.513
13,929.2	110.699	13,929.2	104.857	13,929.2	109.121	13,929.2	103.55	13,929.2	88.8348	13,929.2	106.801
14,419.9	111.358	14,419.9	104.786	14,419.9	109.96	14,419.9	103.562	14,419.9	88.8119	14,419.9	107.384
14,928.2	111.524	14,928.2	104.197	14,928.2	111.075	14,928.2	103.559	14,928.2	88.2806	14,928.2	107.974
15,455.6	110.946	15,455.6	103.251	15,455.6	112.076	15,455.6	103.101	15,455.6	88.0053	15,455.6	108.334
16,000.5	109.982	16,000.5	101.98	16,000.5	112.43	16,000.5	101.8	16,000.5	86.5945	16,000.5	108.215
16,564.5	108.725	16,564.5	100.376	16,564.5	112.36	16,564.5	99.5449	16,564.5	84.0715	16,564.5	107.761
17,148.9	106.96	17,148.9	98.6561	17,148.9	111.722	17,148.9	97.1159	17,148.9	81.7365	17,148.9	106.866
17,752.4	104.911	17,752.4	97.0118	17,752.4	110.839	17,752.4	95.0999	17,752.4	80.4184	17,752.4	105.806
18,379.4	102.711	18,379.4	95.3753	18,379.4	109.887	18,379.4	94.114	18,379.4	79.4528	18,379.4	104.74
19,026.9	101.488	19,026.9	93.8194	19,026.9	109.095	19,026.9	93.3963	19,026.9	78.1258	19,026.9	103.912
19,697.8	101.043	19,697.8	91.3015	19,697.8	108.401	19,697.8	92.7588	19,697.8	77.3301	19,697.8	103.219
19,999.5	100.726	19,999.5	90.8112	19,999.5	108.085	19,999.5	92.5194	19,999.5	75.4741	19,999.5	102.904
