"Vertical Reflections"					
"Floor Reflection"		"Ceiling Reflection"		"Total Vertical Reflection"	
"Frequency [Hz]"	"Sound Pessure Level [dB]  / [2.83V 1m] "	"Frequency [Hz]"	"Sound Pessure Level [dB]  / [2.83V 1m] "	"Frequency [Hz]"	"Sound Pessure Level [dB]  / [2.83V 1m] "
20.5078	68.2038	20.5078	61.3026	20.5078	66.0002
21.9727	68.5151	21.9727	71.6759	21.9727	70.3769
23.4375	76.0376	23.4375	76.7269	23.4375	76.3959
24.9023	78.4628	24.9023	78.2223	24.9023	78.3442
26.3672	81.1632	26.3672	81.7421	26.3672	81.4623
27.832	83.9527	27.832	84.4399	27.832	84.2032
29.2969	86.8692	29.2969	87.7176	29.2969	87.3141
30.7617	90.1018	30.7617	90.8466	30.7617	90.4901
32.2266	93.4655	32.2266	94.0736	32.2266	93.7802
33.6914	96.0842	33.6914	96.601	33.6914	96.3503
35.1562	98.8292	35.1562	99.2596	35.1562	99.0497
36.6211	101.119	36.6211	101.562	36.6211	101.346
38.0859	103.396	38.0859	103.754	38.0859	103.578
39.5508	105.282	39.5508	105.617	39.5508	105.453
41.0156	106.861	41.0156	107.124	41.0156	106.995
42.4805	108.044	42.4805	108.248	42.4805	108.147
43.9453	108.839	43.9453	108.994	43.9453	108.917
45.4102	109.409	45.4102	109.516	45.4102	109.463
46.875	109.776	46.875	109.856	46.875	109.816
48.3398	109.924	48.3398	110.001	48.3398	109.963
51.2695	110.17	51.2695	110.078	51.2695	110.125
52.7344	110.135	52.7344	110.039	52.7344	110.087
54.1992	110.043	54.1992	109.967	54.1992	110.005
55.6641	109.965	55.6641	109.858	55.6641	109.912
58.5938	109.799	58.5938	109.602	58.5938	109.701
60.0586	109.747	60.0586	109.522	60.0586	109.636
62.9883	109.528	62.9883	109.247	62.9883	109.39
64.4531	109.429	64.4531	109.129	64.4531	109.282
67.3828	109.315	67.3828	108.956	67.3828	109.139
68.8477	109.274	68.8477	108.882	68.8477	109.083
71.7773	109.216	71.7773	108.786	71.7773	109.007
74.707	109.239	74.707	108.789	74.707	109.02
77.6367	109.183	77.6367	108.698	77.6367	108.947
79.1016	109.222	79.1016	108.698	79.1016	108.968
82.0312	109.299	82.0312	108.684	82.0312	109.002
84.9609	108.837	84.9609	108.361	84.9609	108.606
87.8906	108.868	87.8906	108.386	87.8906	108.634
90.8203	108.791	90.8203	108.242	90.8203	108.525
95.2148	109.067	95.2148	108.357	95.2148	108.727
98.1445	109.382	98.1445	108.565	98.1445	108.993
101.074	109.461	101.074	108.635	101.074	109.067
105.469	109.391	105.469	108.566	105.469	108.998
108.398	109.633	108.398	108.788	108.398	109.231
112.793	109.681	112.793	108.79	112.793	109.258
117.188	110.115	117.188	109.238	117.188	109.699
120.117	110.406	120.117	109.478	120.117	109.967
124.512	110.479	124.512	109.523	124.512	110.027
128.906	110.217	128.906	109.205	128.906	109.74
133.301	109.763	133.301	108.799	133.301	109.308
139.16	109.632	139.16	108.462	139.16	109.086
143.555	109.938	143.555	108.705	143.555	109.365
147.949	109.907	147.949	108.627	147.949	109.314
153.809	109.88	153.809	108.415	153.809	109.209
159.668	110.033	159.668	108.269	159.668	109.24
165.527	109.499	165.527	107.739	165.527	108.707
171.387	109.508	171.387	107.862	171.387	108.763
177.246	109.513	177.246	107.978	177.246	108.813
183.105	108.467	183.105	107.669	183.105	108.086
188.965	109.003	188.965	107.86	188.965	108.469
196.289	110.135	196.289	108.562	196.289	109.419
203.613	109.905	203.613	108.514	203.613	109.265
210.938	110.15	210.938	108.413	210.938	109.368
218.262	110.231	218.262	108.2	218.262	109.333
225.586	110.335	225.586	108.163	225.586	109.384
232.91	110.232	232.91	108.223	232.91	109.343
241.699	110.117	241.699	108.032	241.699	109.199
250.488	110.25	250.488	107.756	250.488	109.179
259.277	110.239	259.277	108.142	259.277	109.316
268.066	109.806	268.066	107.487	268.066	108.799
276.855	109.943	276.855	107.594	276.855	108.925
287.109	109.813	287.109	107.668	287.109	108.872
297.363	109.962	297.363	107.906	297.363	109.055
307.617	110.045	307.617	108.134	307.617	109.194
319.336	109.809	319.336	107.567	319.336	108.831
329.59	109.609	329.59	107.719	329.59	108.766
341.309	109.37	341.309	107.167	341.309	108.407
353.027	109.553	353.027	107.139	353.027	108.512
366.211	109.825	366.211	107.224	366.211	108.716
379.395	109.75	379.395	108.028	379.395	108.974
392.578	109.205	392.578	107.045	392.578	108.258
405.762	109.295	405.762	106.536	405.762	108.131
420.41	110.255	420.41	107.192	420.41	108.988
435.059	109.868	435.059	107.275	435.059	108.762
451.172	110.457	451.172	107.254	451.172	109.144
465.82	109.684	465.82	107.078	465.82	108.573
483.398	109.486	483.398	107.255	483.398	108.512
499.512	109.68	499.512	106.699	499.512	108.44
517.09	109.217	517.09	107.059	517.09	108.27
536.133	109.095	536.133	105.687	536.133	107.717
555.176	108.922	555.176	106.206	555.176	107.773
574.219	108.391	574.219	105.349	574.219	107.131
594.727	108.277	594.727	105.25	594.727	107.022
615.234	109.125	615.234	105.825	615.234	107.781
637.207	110.311	637.207	106.272	637.207	108.745
659.18	108.634	659.18	106.893	659.18	107.85
682.617	108.544	682.617	106.871	682.617	107.787
707.52	109.946	707.52	106.24	707.52	108.477
732.422	108.1	732.422	106.074	732.422	107.204
757.324	108.14	757.324	107.942	757.324	108.042
785.156	108.582	785.156	107.868	785.156	108.24
811.523	108.552	811.523	107.342	811.523	107.989
840.82	108.653	840.82	107.776	840.82	108.237
870.117	108.835	870.117	106.983	870.117	108.007
900.879	109.543	900.879	107.774	900.879	108.748
933.105	109.47	933.105	106.776	933.105	108.328
965.332	109.833	965.332	107.259	965.332	108.734
1,000.49	110.5	1,000.49	106.632	1,000.49	108.983
1,035.64	110.373	1,035.64	106.227	1,035.64	108.777
1,072.27	110.43	1,072.27	105.073	1,072.27	108.53
1,108.89	110.026	1,108.89	104.74	1,108.89	108.142
1,148.44	110.241	1,148.44	104.475	1,148.44	108.252
1,189.45	109.151	1,189.45	103.254	1,189.45	107.134
1,230.47	108.787	1,230.47	100.828	1,230.47	106.422
1,274.41	108.317	1,274.41	99.8675	1,274.41	105.887
1,319.82	107.293	1,319.82	97.8511	1,319.82	104.75
1,366.7	106.84	1,366.7	97.7449	1,366.7	104.334
1,413.57	105.938	1,413.57	99.6704	1,413.57	103.848
1,463.38	104.962	1,463.38	99.5146	1,463.38	103.042
1,516.11	105.359	1,516.11	100.303	1,516.11	103.529
1,568.85	105.705	1,568.85	102.19	1,568.85	104.294
1,624.51	106.109	1,624.51	104.099	1,624.51	105.219
1,681.64	106.854	1,681.64	100.263	1,681.64	104.705
1,741.7	105.741	1,741.7	104.169	1,741.7	105.026
1,803.22	105.573	1,803.22	104.743	1,803.22	105.178
1,866.21	106.604	1,866.21	104.624	1,866.21	105.726
1,932.13	105.972	1,932.13	103.254	1,932.13	104.822
1,999.51	105.632	1,999.51	105.593	1,999.51	105.612
2,069.82	105.154	2,069.82	106.728	2,069.82	106.012
2,143.07	106.285	2,143.07	106.891	2,143.07	106.599
2,219.24	107.429	2,219.24	107.528	2,219.24	107.479
2,296.88	107.734	2,296.88	105.757	2,296.88	106.857
2,378.91	108.298	2,378.91	106.535	2,378.91	107.505
2,462.4	107.688	2,462.4	105.36	2,462.4	106.678
2,548.83	106.918	2,548.83	105.336	2,548.83	106.199
2,639.65	106.428	2,639.65	104.305	2,639.65	105.495
2,731.93	106.514	2,731.93	103.903	2,731.93	105.402
2,828.61	106.412	2,828.61	103.576	2,828.61	105.221
2,928.22	106.164	2,928.22	103.521	2,928.22	105.041
3,030.76	105.787	3,030.76	104.328	3,030.76	105.119
3,137.7	106.266	3,137.7	104.097	3,137.7	105.315
3,249.02	106.938	3,249.02	103.653	3,249.02	105.599
3,363.28	107.68	3,363.28	103.316	3,363.28	106.024
3,481.93	108.12	3,481.93	103.459	3,481.93	106.387
3,604.98	108.208	3,604.98	103.695	3,604.98	106.513
3,732.42	107.46	3,732.42	104.038	3,732.42	106.077
3,864.26	107.863	3,864.26	103.639	3,864.26	106.245
4,000.49	108.349	4,000.49	103.902	4,000.49	106.672
4,141.11	108.142	4,141.11	103.455	4,141.11	106.403
4,287.6	108.641	4,287.6	103.006	4,287.6	106.68
4,438.48	108.838	4,438.48	102.915	4,438.48	106.816
4,595.21	108.859	4,595.21	102.986	4,595.21	106.848
4,756.35	108.283	4,756.35	102.315	4,756.35	106.253
4,924.8	107.928	4,924.8	102.336	4,924.8	105.976
5,097.66	107.481	5,097.66	102.952	5,097.66	105.782
5,277.83	107.006	5,277.83	102.672	5,277.83	105.359
5,463.87	107.247	5,463.87	102.558	5,463.87	105.507
5,657.23	106.516	5,657.23	102.781	5,657.23	105.038
5,856.45	106.484	5,856.45	102.489	5,856.45	104.931
6,062.99	107.06	6,062.99	101.932	6,062.99	105.213
6,276.86	106.222	6,276.86	101.616	6,276.86	104.503
6,498.05	105.706	6,498.05	101.555	6,498.05	104.108
6,726.56	105.623	6,726.56	101.051	6,726.56	103.913
6,963.87	105.682	6,963.87	100.967	6,963.87	103.935
7,209.96	105.807	7,209.96	101.034	7,209.96	104.045
7,464.84	105.947	7,464.84	100.649	7,464.84	104.06
7,727.05	106.366	7,727.05	100.643	7,727.05	104.386
7,999.51	105.616	7,999.51	100.76	7,999.51	103.834
8,282.23	105.614	8,282.23	100.905	8,282.23	103.869
8,573.73	105.776	8,573.73	100.912	8,573.73	103.992
8,876.95	105.436	8,876.95	101.098	8,876.95	103.788
9,188.96	105.892	9,188.96	101.158	9,188.96	104.141
9,514.16	106.22	9,514.16	101.798	9,514.16	104.549
9,849.61	105.762	9,849.61	102.24	9,849.61	104.349
10,196.8	106.427	10,196.8	102.626	10,196.8	104.93
10,555.7	106.663	10,555.7	102.802	10,555.7	105.148
10,927.7	107.481	10,927.7	102.965	10,927.7	105.786
11,313	107.758	11,313	103.379	11,313	106.099
11,712.9	108.387	11,712.9	103.766	11,712.9	106.664
12,126	108.099	12,126	104.255	12,126	106.589
12,553.7	108.879	12,553.7	104.722	12,553.7	107.28
12,996.1	109.321	12,996.1	104.889	12,996.1	107.648
13,454.6	110.18	13,454.6	104.869	13,454.6	108.291
13,929.2	110.699	13,929.2	104.857	13,929.2	108.694
14,419.9	111.358	14,419.9	104.786	14,419.9	109.212
14,928.2	111.524	14,928.2	104.197	14,928.2	109.251
15,455.6	110.946	15,455.6	103.251	15,455.6	108.618
16,000.5	109.982	16,000.5	101.98	16,000.5	107.61
16,564.5	108.725	16,564.5	100.376	16,564.5	106.308
17,148.9	106.96	17,148.9	98.6561	17,148.9	104.548
17,752.4	104.911	17,752.4	97.0118	17,752.4	102.554
18,379.4	102.711	18,379.4	95.3753	18,379.4	100.436
19,026.9	101.488	19,026.9	93.8194	19,026.9	99.1634
19,697.8	101.043	19,697.8	91.3015	19,697.8	98.4708
19,999.5	100.726	19,999.5	90.8112	19,999.5	98.1379
