Freq[Hz]     dBSPL  Phase[Deg]
5.00000     60.145    -0.354
5.07273     60.267    -0.359
5.14651     60.388    -0.365
5.22137     60.510    -0.370
5.29732     60.631    -0.375
5.37437     60.753    -0.381
5.45254     60.874    -0.386
5.53185     60.996    -0.392
5.61231     61.117    -0.398
5.69394     61.239    -0.403
5.77676     61.360    -0.409
5.86079     61.482    -0.415
5.94604     61.603    -0.421
6.03252     61.725    -0.427
6.12027     61.846    -0.434
6.20929     61.968    -0.440
6.29961     62.089    -0.446
6.39124     62.211    -0.453
6.48420     62.332    -0.460
6.57851     62.454    -0.466
6.67420     62.575    -0.473
6.77128     62.697    -0.480
6.86977     62.818    -0.487
6.96969     62.940    -0.494
7.07107     63.061    -0.501
7.17392     63.183    -0.508
7.27827     63.304    -0.516
7.38413     63.426    -0.523
7.49154     63.547    -0.531
7.60050     63.668    -0.539
7.71105     63.790    -0.547
7.82321     63.911    -0.555
7.93701     64.033    -0.563
8.05245     64.154    -0.571
8.16958     64.276    -0.579
8.28841     64.397    -0.588
8.40896     64.519    -0.596
8.53128     64.640    -0.605
8.65537     64.762    -0.614
8.78126     64.883    -0.623
8.90899     65.005    -0.632
9.03857     65.126    -0.641
9.17004     65.248    -0.650
9.30342     65.369    -0.660
9.43874     65.491    -0.670
9.57603     65.612    -0.679
9.71532     65.734    -0.689
9.85663     65.855    -0.699
10.0000     65.977    -0.709
10.1455     66.098    -0.720
10.2930     66.220    -0.730
10.4427     66.341    -0.741
10.5946     66.463    -0.752
10.7487     66.584    -0.763
10.9051     66.706    -0.774
11.0637     66.827    -0.785
11.2246     66.949    -0.797
11.3879     67.070    -0.808
11.5535     67.192    -0.820
11.7216     67.313    -0.832
11.8921     67.435    -0.844
12.0650     67.556    -0.857
12.2405     67.678    -0.869
12.4186     67.799    -0.882
12.5992     67.921    -0.895
12.7825     68.042    -0.908
12.9684     68.164    -0.921
13.1570     68.285    -0.935
13.3484     68.407    -0.949
13.5426     68.528    -0.962
13.7395     68.649    -0.977
13.9394     68.771    -0.991
14.1421     68.892    -1.005
14.3478     69.014    -1.020
14.5565     69.135    -1.035
14.7683     69.257    -1.050
14.9831     69.378    -1.066
15.2010     69.500    -1.081
15.4221     69.621    -1.097
15.6464     69.743    -1.113
15.8740     69.864    -1.130
16.1049     69.986    -1.146
16.3392     70.107    -1.163
16.5768     70.229    -1.180
16.8179     70.350    -1.198
17.0626     70.472    -1.215
17.3107     70.593    -1.233
17.5625     70.715    -1.251
17.8180     70.836    -1.270
18.0771     70.958    -1.288
18.3401     71.079    -1.307
18.6068     71.200    -1.327
18.8775     71.322    -1.346
19.1521     71.443    -1.366
19.4306     71.565    -1.386
19.7133     71.686    -1.407
20.0000     71.808    -1.427
20.2909     71.929    -1.448
20.5860     72.051    -1.470
20.8855     72.147    -1.492
21.1893     72.244    -1.514
21.4975     72.341    -1.536
21.8102     72.438    -1.559
22.1274     72.534    -1.582
22.4492     72.631    -1.605
22.7758     72.728    -1.629
23.1071     72.825    -1.653
23.4432     72.922    -1.678
23.7841     73.087    -1.703
24.1301     73.253    -1.728
24.4811     73.418    -1.754
24.8372     73.583    -1.780
25.1984     73.748    -1.807
25.5649     73.913    -1.834
25.9368     74.078    -1.861
26.3141     74.243    -1.889
26.6968     74.439    -1.917
27.0851     74.640    -1.946
27.4791     74.841    -1.975
27.8788     75.042    -2.004
28.2843     75.243    -2.034
28.6957     75.444    -2.065
29.1131     75.645    -2.096
29.5365     75.857    -2.127
29.9661     76.076    -2.159
30.4020     76.295    -2.192
30.8442     76.515    -2.225
31.2929     76.734    -2.258
31.7480     76.953    -2.292
32.2098     77.173    -2.327
32.6783     77.398    -2.362
33.1536     77.623    -2.398
33.6359     77.848    -2.434
34.1251     78.073    -2.471
34.6215     78.298    -2.509
35.1250     78.524    -2.547
35.6359     78.746    -2.586
36.1543     78.969    -2.625
36.6802     79.191    -2.665
37.2137     79.413    -2.706
37.7550     79.636    -2.747
38.3041     79.880    -2.789
38.8613     80.156    -2.832
39.4265     80.433    -2.876
40.0000     80.709    -2.920
40.5818     80.986    -2.965
41.1721     81.251    -3.010
41.7710     81.486    -3.057
42.3785     81.721    -3.104
42.9949     81.955    -3.152
43.6203     82.190    -3.201
44.2548     82.404    -3.251
44.8985     82.596    -3.302
45.5515     82.787    -3.353
46.2141     82.979    -3.405
46.8863     83.170    -3.459
47.5683     83.318    -3.513
48.2602     83.465    -3.568
48.9621     83.613    -3.624
49.6743     83.761    -3.681
50.3968     83.874    -3.739
51.1299     83.979    -3.798
51.8736     84.083    -3.858
52.6281     84.188    -3.920
53.3936     84.259    -3.982
54.1702     84.325    -4.045
54.9581     84.391    -4.110
55.7575     84.452    -4.176
56.5685     84.485    -4.243
57.3914     84.518    -4.311
58.2261     84.550    -4.380
59.0730     84.569    -4.451
59.9323     84.578    -4.523
60.8040     84.587    -4.596
61.6884     84.594    -4.670
62.5857     84.589    -4.746
63.4960     84.585    -4.824
64.4196     84.580    -4.902
65.3566     84.571    -4.983
66.3073     84.562    -5.064
67.2717     84.553    -5.148
68.2502     84.545    -5.232
69.2429     84.536    -5.319
70.2501     84.526    -5.406
71.2719     84.517    -5.496
72.3086     84.507    -5.587
73.3603     84.496    -5.680
74.4274     84.481    -5.775
75.5099     84.466    -5.871
76.6083     84.447    -5.969
77.7226     84.422    -6.069
78.8531     84.397    -6.171
80.0000     84.365    -6.275
81.1636     84.330    -6.380
82.3442     84.294    -6.488
83.5419     84.254    -6.597
84.7570     84.215    -6.708
85.9899     84.178    -6.822
87.2406     84.141    -6.937
88.5096     84.109    -7.055
89.7970     84.082    -7.174
91.1031     84.057    -7.296
92.4282     84.039    -7.420
93.7726     84.022    -7.546
95.1366     84.007    -7.674
96.5204     83.991    -7.804
97.9243     83.969    -7.936
99.3486     83.946    -8.070
100.794     83.917    -8.207
102.260     83.886    -8.345
103.747     83.857    -8.486
105.256     83.828    -8.629
106.787     83.809    -8.773
108.340     83.790    -8.920
109.916     83.792    -9.069
111.515     83.797    -9.220
113.137     83.823    -9.372
114.783     83.853    -9.527
116.452     83.891    -9.683
118.146     83.922    -9.841
119.865     83.949   -10.000
121.608     83.943   -10.161
123.377     83.919   -10.323
125.171     83.847   -10.486
126.992     83.738   -10.651
128.839     83.599   -10.816
130.713     83.415   -10.982
132.615     83.225   -11.149
134.543     83.030   -11.316
136.500     82.867   -11.484
138.486     82.734   -11.651
140.500     82.642   -11.818
142.544     82.609   -11.985
144.617     82.594   -12.151
146.721     82.588   -12.316
148.855     82.561   -12.479
151.020     82.485   -12.641
153.217     82.364   -12.801
155.445     82.197   -12.958
157.706     81.996   -13.114
160.000     81.812   -13.266
162.327     81.674   -13.415
164.688     81.600   -13.560
167.084     81.601   -13.701
169.514     81.670   -13.838
171.980     81.750   -13.970
174.481     81.807   -14.097
177.019     81.819   -14.218
179.594     81.784   -14.334
182.206     81.717   -14.443
184.856     81.645   -14.546
187.545     81.593   -14.642
190.273     81.565   -14.731
193.041     81.530   -14.812
195.849     81.450   -14.886
198.697     81.294   -14.952
201.587     81.068   -15.009
204.520     80.814   -15.058
207.494     80.600   -15.098
210.512     80.488   -15.130
213.574     80.487   -15.153
216.681     80.548   -15.167
219.833     80.578   -15.171
223.030     80.496   -15.167
226.274     80.294   -15.154
229.565     80.028   -15.132
232.905     79.787   -15.101
236.292     79.643   -15.061
239.729     79.601   -15.012
243.216     79.603   -14.955
246.754     79.563   -14.890
250.343     79.465   -14.817
253.984     79.354   -14.736
257.678     79.296   -14.648
261.426     79.324   -14.552
265.229     79.369   -14.450
269.087     79.347   -14.341
273.001     79.210   -14.225
276.972     79.017   -14.104
281.000     78.872   -13.978
285.088     78.842   -13.846
289.234     78.859   -13.709
293.441     78.819   -13.568
297.709     78.701   -13.423
302.040     78.644   -13.275
306.433     78.753   -13.123
310.890     78.858   -12.968
315.412     78.918   -12.810
320.000     78.870   -12.651
324.655     78.730   -12.489
329.377     78.578   -12.325
334.168     78.459   -12.161
339.028     78.336   -11.995
343.959     78.147   -11.828
348.962     77.890   -11.661
354.038     77.620   -11.494
359.188     77.366   -11.326
364.412     77.095   -11.159
369.713     76.786   -10.992
375.090     76.488   -10.826
380.546     76.281   -10.661
386.081     76.149   -10.496
391.697     76.015   -10.333
397.394     75.849   -10.171
403.175     75.669   -10.010
409.039     75.456    -9.850
414.989     75.175    -9.692
421.025     74.865    -9.536
427.149     74.627    -9.382
433.362     74.525    -9.229
439.665     74.572    -9.078
446.060     74.747    -8.929
452.548     74.986    -8.782
459.131     75.240    -8.637
465.809     75.507    -8.494
472.584     75.752    -8.354
479.458     75.891    -8.215
486.432     75.896    -8.078
493.507     75.786    -7.944
500.686     75.562    -7.811
507.968     75.197    -7.681
515.357     74.977    -7.553
522.853     74.801    -7.427
530.458     74.804    -7.303
538.174     75.027    -7.182
546.002     75.400    -7.062
553.943     75.806    -6.944
562.001     76.130    -6.829
570.175     76.307    -6.715
578.469     76.339    -6.604
586.883     76.298    -6.494
595.419     76.292    -6.387
604.080     76.395    -6.281
612.866     76.589    -6.177
621.780     76.776    -6.075
630.824     76.866    -5.975
640.000     76.846    -5.877
649.309     76.793    -5.780
658.753     76.822    -5.686
668.335     76.971    -5.593
678.056     77.157    -5.501
687.919     77.270    -5.412
697.925     77.297    -5.324
708.077     77.362    -5.237
718.376     77.491    -5.153
728.825     77.643    -5.069
739.426     77.632    -4.988
750.181     77.356    -4.907
761.093     76.936    -4.828
772.163     76.701    -4.751
783.394     76.850    -4.675
794.789     77.228    -4.600
806.349     77.496    -4.527
818.078     77.479    -4.455
829.977     77.229    -4.384
842.050     76.920    -4.315
854.298     76.753    -4.247
866.724     76.850    -4.180
879.330     77.118    -4.114
892.120     77.255    -4.049
905.097     77.055    -3.986
918.262     76.766    -3.923
931.618     76.867    -3.862
945.169     77.280    -3.802
958.917     77.548    -3.743
972.864     77.451    -3.685
987.015     77.310    -3.627
1001.37     77.353    -3.571
1015.94     77.319    -3.516
1030.71     77.054    -3.462
1045.71     76.912    -3.409
1060.92     77.067    -3.356
1076.35     77.154    -3.305
1092.00     77.033    -3.254
1107.89     76.892    -3.204
1124.00     76.713    -3.155
1140.35     76.369    -3.107
1156.94     75.978    -3.060
1173.77     75.756    -3.013
1190.84     75.899    -2.967
1208.16     76.301    -2.922
1225.73     76.471    -2.878
1243.56     76.264    -2.835
1261.65     76.017    -2.792
1280.00     75.748    -2.750
1298.62     75.185    -2.708
1317.51     74.502    -2.667
1336.67     74.245    -2.627
1356.11     74.671    -2.588
1375.84     75.414    -2.549
1395.85     75.497    -2.511
1416.15     74.731    -2.473
1436.75     73.990    -2.436
1457.65     74.149    -2.400
1478.85     74.118    -2.364
1500.36     73.051    -2.329
1522.19     72.640    -2.294
1544.33     73.011    -2.260
1566.79     72.169    -2.227
1589.58     70.112    -2.194
1612.70     69.258    -2.161
1636.16     69.929    -2.129
1659.95     70.730    -2.098
1684.10     70.709    -2.067
1708.60     69.308    -2.036
1733.45     67.638    -2.006
1758.66     67.582    -1.976
1784.24     69.346    -1.947
1810.19     71.049    -1.919
1836.52     71.443    -1.890
1863.24     70.639    -1.863
1890.34     69.582    -1.835
1917.83     69.324    -1.808
1945.73     70.003    -1.782
1974.03     70.360    -1.756
2002.74     69.942    -1.730
2031.87     70.113    -1.704
2061.43     70.456    -1.679
2091.41     70.891    -1.655
2121.83     71.513    -1.631
2152.69     71.749    -1.607
2184.01     71.641    -1.583
2215.77     71.383    -1.560
2248.00     71.047    -1.537
2280.70     70.567    -1.515
2313.87     69.753    -1.493
2347.53     68.747    -1.471
2381.68     68.155    -1.450
2416.32     67.875    -1.429
2451.46     66.379    -1.408
2487.12     64.743    -1.387
2523.30     64.816    -1.367
2560.00     63.852    -1.347
2597.24     63.075    -1.328
2635.01     64.321    -1.308
2673.34     65.783    -1.289
2712.23     65.286    -1.271
2751.68     63.786    -1.252
2791.70     63.180    -1.234
2832.31     63.696    -1.216
2873.50     65.878    -1.199
2915.30     67.966    -1.181
2957.70     67.670    -1.164
3000.72     67.264    -1.147
3044.37     67.495    -1.131
3088.65     68.271    -1.114
3133.58     69.375    -1.098
3179.16     69.911    -1.082
3225.40     69.311    -1.067
3272.31     68.646    -1.051
3319.91     68.235    -1.036
3368.20     67.986    -1.021
3417.19     68.542    -1.006
3466.89     69.268    -0.992
3517.32     69.615    -0.977
3568.48     69.493    -0.963
3620.39     69.517    -0.949
3673.05     69.209    -0.936
3726.47     68.759    -0.922
3780.67     68.938    -0.909
3835.67     69.126    -0.896
3891.46     69.171    -0.883
3948.06     68.971    -0.870
4005.49     69.296    -0.858
4063.75     69.326    -0.845
4122.86     68.502    -0.833
4182.82     68.909    -0.821
4243.66     69.720    -0.809
4305.39     69.865    -0.797
4368.01     70.345    -0.786
4431.55     71.311    -0.775
4496.01     71.041    -0.763
4561.40     69.879    -0.752
4627.75     68.868    -0.742
4695.06     68.073    -0.731
4763.35     67.076    -0.720
4832.64     63.861    -0.710
4902.93     63.263    -0.700
4974.24     66.801    -0.690
5046.60     68.332    -0.680
5120.00     68.325    -0.670
5194.47     68.552    -0.660
5270.03     68.911    -0.651
5346.68     68.125    -0.642
5424.45     67.035    -0.632
5503.35     66.673    -0.623
5583.40     66.264    -0.614
5664.61     66.026    -0.605
5747.01     65.070    -0.597
5830.60     64.425    -0.588
5915.41     64.986    -0.580
6001.45     64.788    -0.571
6088.74     64.635    -0.563
6177.30     64.888    -0.555
6267.15     64.904    -0.547
6358.31     64.365    -0.539
6450.80     63.994    -0.531
6544.62     64.571    -0.524
6639.82     63.661    -0.516
6736.40     62.177    -0.509
6834.38     61.914    -0.502
6933.79     62.144    -0.494
7034.64     61.426    -0.487
7136.96     59.444    -0.480
7240.77     58.603    -0.473
7346.09     58.807    -0.467
7452.94     60.181    -0.460
7561.35     61.571    -0.453
7671.33     61.744    -0.447
7782.91     61.779    -0.440
7896.12     61.539    -0.434
8010.97     59.643    -0.428
8127.49     56.784    -0.422
8245.71     55.346    -0.416
8365.65     55.641    -0.410
8487.33     57.437    -0.404
8610.78     58.618    -0.398
8736.03     57.930    -0.392
8863.09     57.935    -0.387
8992.01     58.758    -0.381
9122.80     59.327    -0.376
9255.50     60.139    -0.370
9390.12     60.654    -0.365
9526.70     60.838    -0.360
9665.27     60.116    -0.355
9805.86     59.016    -0.349
9948.49     58.875    -0.344
10093.2     59.405    -0.339
10240.0     60.153    -0.335
10388.9     60.032    -0.330
10540.1     58.589    -0.325
10693.4     57.387    -0.320
10848.9     58.134    -0.316
11006.7     58.815    -0.311
11166.8     57.926    -0.307
11329.2     56.857    -0.302
11494.0     55.554    -0.298
11661.2     53.612    -0.294
11830.8     51.965    -0.290
12002.9     51.522    -0.285
12177.5     52.556    -0.281
12354.6     53.230    -0.277
12534.3     52.000    -0.273
12716.6     50.198    -0.269
12901.6     49.217    -0.266
13089.2     48.784    -0.262
13279.6     47.548    -0.258
13472.8     45.696    -0.254
13668.8     46.349    -0.251
13867.6     48.563    -0.247
14069.3     49.149    -0.243
14273.9     48.181    -0.240
14481.5     45.802    -0.237
14692.2     44.450    -0.233
14905.9     47.095    -0.230
15122.7     50.213    -0.227
15342.7     50.466    -0.223
15565.8     49.517    -0.220
15792.2     49.227    -0.217
16021.9     49.906    -0.214
16255.0     50.697    -0.211
16491.4     51.352    -0.208
16731.3     51.596    -0.205
16974.7     51.502    -0.202
17221.6     51.594    -0.199
17472.1     52.198    -0.196
17726.2     53.325    -0.193
17984.0     54.866    -0.190
18245.6     56.451    -0.188
18511.0     57.549    -0.185
18780.2     58.006    -0.182
19053.4     58.149    -0.180
19330.5     58.434    -0.177
19611.7     58.424    -0.175
19897.0     58.513    -0.172
20186.4     58.473    -0.170
20480.0     58.433    -0.167
20777.9     58.392    -0.165
21080.1     58.352    -0.162
21386.7     58.311    -0.160
21697.8     58.271    -0.158
22013.4     58.230    -0.156
22333.6     58.190    -0.153
22658.4     58.149    -0.151
22988.0     58.109    -0.149
23322.4     58.069    -0.147
23661.6     58.028    -0.145
24005.8     57.988    -0.143
24355.0     57.947    -0.141
24709.2     57.907    -0.139
25068.6     57.866    -0.137
25433.2     57.826    -0.135
25803.2     57.786    -0.133
26178.5     57.745    -0.131
26559.3     57.705    -0.129
26945.6     57.664    -0.127
27337.5     57.624    -0.125
27735.2     57.583    -0.123
28138.6     57.543    -0.122
28547.9     57.502    -0.120
28963.1     57.462    -0.118
29384.4     57.422    -0.117
29811.8     57.381    -0.115
30245.4     57.341    -0.113
30685.3     57.300    -0.112
31131.7     57.260    -0.110
31584.5     57.219    -0.108
32043.9     57.179    -0.107
32510.0     57.139    -0.105
32982.8     57.098    -0.104
33462.6     57.058    -0.102
33949.3     57.017    -0.101
34443.1     56.977    -0.099
34944.1     56.936    -0.098
35452.4     56.896    -0.097
35968.0     56.855    -0.095
36491.2     56.815    -0.094
37022.0     56.775    -0.093
37560.5     56.734    -0.091
38106.8     56.694    -0.090
38661.1     56.653    -0.089
39223.4     56.613    -0.087
39793.9     56.572    -0.086
