Freq[Hz]     dBSPL  Phase[Deg]
5.00000     59.199    -0.354
5.07273     59.321    -0.359
5.14651     59.442    -0.365
5.22137     59.564    -0.370
5.29732     59.685    -0.375
5.37437     59.807    -0.381
5.45254     59.928    -0.386
5.53185     60.050    -0.392
5.61231     60.171    -0.398
5.69394     60.293    -0.403
5.77676     60.414    -0.409
5.86079     60.536    -0.415
5.94604     60.657    -0.421
6.03252     60.779    -0.427
6.12027     60.900    -0.434
6.20929     61.022    -0.440
6.29961     61.143    -0.446
6.39124     61.265    -0.453
6.48420     61.386    -0.460
6.57851     61.508    -0.466
6.67420     61.629    -0.473
6.77128     61.751    -0.480
6.86977     61.872    -0.487
6.96969     61.994    -0.494
7.07107     62.115    -0.501
7.17392     62.237    -0.508
7.27827     62.358    -0.516
7.38413     62.480    -0.523
7.49154     62.601    -0.531
7.60050     62.723    -0.539
7.71105     62.844    -0.547
7.82321     62.966    -0.555
7.93701     63.087    -0.563
8.05245     63.209    -0.571
8.16958     63.330    -0.579
8.28841     63.452    -0.588
8.40896     63.573    -0.596
8.53128     63.694    -0.605
8.65537     63.816    -0.614
8.78126     63.937    -0.623
8.90899     64.059    -0.632
9.03857     64.180    -0.641
9.17004     64.302    -0.650
9.30342     64.423    -0.660
9.43874     64.545    -0.670
9.57603     64.666    -0.679
9.71532     64.788    -0.689
9.85663     64.909    -0.699
10.0000     65.031    -0.709
10.1455     65.152    -0.720
10.2930     65.274    -0.730
10.4427     65.395    -0.741
10.5946     65.517    -0.752
10.7487     65.638    -0.763
10.9051     65.760    -0.774
11.0637     65.881    -0.785
11.2246     66.003    -0.797
11.3879     66.124    -0.808
11.5535     66.246    -0.820
11.7216     66.367    -0.832
11.8921     66.489    -0.844
12.0650     66.610    -0.857
12.2405     66.732    -0.869
12.4186     66.853    -0.882
12.5992     66.975    -0.895
12.7825     67.096    -0.908
12.9684     67.218    -0.921
13.1570     67.339    -0.935
13.3484     67.461    -0.949
13.5426     67.582    -0.962
13.7395     67.704    -0.977
13.9394     67.825    -0.991
14.1421     67.947    -1.005
14.3478     68.068    -1.020
14.5565     68.189    -1.035
14.7683     68.311    -1.050
14.9831     68.432    -1.066
15.2010     68.554    -1.081
15.4221     68.675    -1.097
15.6464     68.797    -1.113
15.8740     68.918    -1.130
16.1049     69.040    -1.146
16.3392     69.161    -1.163
16.5768     69.283    -1.180
16.8179     69.404    -1.198
17.0626     69.526    -1.215
17.3107     69.647    -1.233
17.5625     69.769    -1.251
17.8180     69.890    -1.270
18.0771     70.012    -1.288
18.3401     70.133    -1.307
18.6068     70.255    -1.327
18.8775     70.376    -1.346
19.1521     70.498    -1.366
19.4306     70.619    -1.386
19.7133     70.740    -1.407
20.0000     70.862    -1.427
20.2909     70.983    -1.448
20.5860     71.105    -1.470
20.8855     71.202    -1.492
21.1893     71.298    -1.514
21.4975     71.395    -1.536
21.8102     71.492    -1.559
22.1274     71.588    -1.582
22.4492     71.685    -1.605
22.7758     71.782    -1.629
23.1071     71.879    -1.653
23.4432     71.976    -1.678
23.7841     72.142    -1.703
24.1301     72.307    -1.728
24.4811     72.472    -1.754
24.8372     72.637    -1.780
25.1984     72.802    -1.807
25.5649     72.967    -1.834
25.9368     73.132    -1.861
26.3141     73.297    -1.889
26.6968     73.493    -1.917
27.0851     73.694    -1.946
27.4791     73.895    -1.975
27.8788     74.096    -2.004
28.2843     74.297    -2.034
28.6957     74.498    -2.065
29.1131     74.699    -2.096
29.5365     74.911    -2.127
29.9661     75.130    -2.159
30.4020     75.349    -2.192
30.8442     75.569    -2.225
31.2929     75.788    -2.258
31.7480     76.007    -2.292
32.2098     76.227    -2.327
32.6783     76.452    -2.362
33.1536     76.677    -2.398
33.6359     76.902    -2.434
34.1251     77.127    -2.471
34.6215     77.352    -2.509
35.1250     77.578    -2.547
35.6359     77.800    -2.586
36.1543     78.023    -2.625
36.6802     78.245    -2.665
37.2137     78.468    -2.706
37.7550     78.690    -2.747
38.3041     78.967    -2.789
38.8613     79.327    -2.832
39.4265     79.688    -2.876
40.0000     80.048    -2.920
40.5818     80.408    -2.965
41.1721     80.751    -3.010
41.7710     81.046    -3.057
42.3785     81.341    -3.104
42.9949     81.635    -3.152
43.6203     81.930    -3.201
44.2548     82.195    -3.251
44.8985     82.429    -3.302
45.5515     82.664    -3.353
46.2141     82.898    -3.405
46.8863     83.132    -3.459
47.5683     83.307    -3.513
48.2602     83.482    -3.568
48.9621     83.657    -3.624
49.6743     83.832    -3.681
50.3968     83.965    -3.739
51.1299     84.089    -3.798
51.8736     84.212    -3.858
52.6281     84.336    -3.920
53.3936     84.418    -3.982
54.1702     84.493    -4.045
54.9581     84.568    -4.110
55.7575     84.639    -4.176
56.5685     84.680    -4.243
57.3914     84.722    -4.311
58.2261     84.763    -4.380
59.0730     84.790    -4.451
59.9323     84.805    -4.523
60.8040     84.820    -4.596
61.6884     84.834    -4.670
62.5857     84.840    -4.746
63.4960     84.847    -4.824
64.4196     84.854    -4.902
65.3566     84.854    -4.983
66.3073     84.854    -5.064
67.2717     84.854    -5.148
68.2502     84.855    -5.232
69.2429     84.855    -5.319
70.2501     84.856    -5.406
71.2719     84.844    -5.496
72.3086     84.831    -5.587
73.3603     84.817    -5.680
74.4274     84.790    -5.775
75.5099     84.763    -5.871
76.6083     84.725    -5.969
77.7226     84.669    -6.069
78.8531     84.613    -6.171
80.0000     84.545    -6.275
81.1636     84.473    -6.380
82.3442     84.398    -6.488
83.5419     84.313    -6.597
84.7570     84.229    -6.708
85.9899     84.160    -6.822
87.2406     84.094    -6.937
88.5096     84.042    -7.055
89.7970     84.005    -7.174
91.1031     83.975    -7.296
92.4282     83.976    -7.420
93.7726     83.976    -7.546
95.1366     83.996    -7.674
96.5204     84.015    -7.804
97.9243     84.037    -7.936
99.3486     84.060    -8.070
100.794     84.035    -8.207
102.260     83.999    -8.345
103.747     83.962    -8.486
105.256     83.925    -8.629
106.787     83.889    -8.773
108.340     83.854    -8.920
109.916     83.821    -9.069
111.515     83.791    -9.220
113.137     83.779    -9.372
114.783     83.775    -9.527
116.452     83.787    -9.683
118.146     83.808    -9.841
119.865     83.835   -10.000
121.608     83.858   -10.161
123.377     83.874   -10.323
125.171     83.870   -10.486
126.992     83.845   -10.651
128.839     83.805   -10.816
130.713     83.738   -10.982
132.615     83.666   -11.149
134.543     83.591   -11.316
136.500     83.529   -11.484
138.486     83.480   -11.651
140.500     83.447   -11.818
142.544     83.432   -11.985
144.617     83.414   -12.151
146.721     83.389   -12.316
148.855     83.333   -12.479
151.020     83.243   -12.641
153.217     83.129   -12.801
155.445     82.998   -12.958
157.706     82.878   -13.114
160.000     82.803   -13.266
162.327     82.779   -13.415
164.688     82.807   -13.560
167.084     82.875   -13.701
169.514     82.945   -13.838
171.980     82.965   -13.970
174.481     82.916   -14.097
177.019     82.796   -14.218
179.594     82.625   -14.334
182.206     82.447   -14.443
184.856     82.318   -14.546
187.545     82.277   -14.642
190.273     82.327   -14.731
193.041     82.412   -14.812
195.849     82.464   -14.886
198.697     82.436   -14.952
201.587     82.325   -15.009
204.520     82.174   -15.058
207.494     82.052   -15.098
210.512     82.016   -15.130
213.574     82.070   -15.153
216.681     82.163   -15.167
219.833     82.211   -15.171
223.030     82.154   -15.167
226.274     82.007   -15.154
229.565     81.840   -15.132
232.905     81.737   -15.101
236.292     81.737   -15.061
239.729     81.805   -15.012
243.216     81.860   -14.955
246.754     81.822   -14.890
250.343     81.716   -14.817
253.984     81.616   -14.736
257.678     81.600   -14.648
261.426     81.692   -14.552
265.229     81.805   -14.450
269.087     81.858   -14.341
273.001     81.821   -14.225
276.972     81.763   -14.104
281.000     81.767   -13.978
285.088     81.865   -13.846
289.234     81.985   -13.709
293.441     82.051   -13.568
297.709     82.061   -13.423
302.040     82.099   -13.275
306.433     82.197   -13.123
310.890     82.268   -12.968
315.412     82.322   -12.810
320.000     82.343   -12.651
324.655     82.343   -12.489
329.377     82.350   -12.325
334.168     82.354   -12.161
339.028     82.316   -11.995
343.959     82.216   -11.828
348.962     82.078   -11.661
354.038     81.935   -11.494
359.188     81.802   -11.326
364.412     81.677   -11.159
369.713     81.585   -10.992
375.090     81.567   -10.826
380.546     81.629   -10.661
386.081     81.714   -10.496
391.697     81.783   -10.333
397.394     81.839   -10.171
403.175     81.886   -10.010
409.039     81.896    -9.850
414.989     81.856    -9.692
421.025     81.816    -9.536
427.149     81.829    -9.382
433.362     81.888    -9.229
439.665     81.962    -9.078
446.060     82.043    -8.929
452.548     82.136    -8.782
459.131     82.242    -8.637
465.809     82.369    -8.494
472.584     82.515    -8.354
479.458     82.653    -8.215
486.432     82.760    -8.078
493.507     82.799    -7.944
500.686     82.726    -7.811
507.968     82.468    -7.681
515.357     82.243    -7.553
522.853     81.968    -7.427
530.458     81.767    -7.303
538.174     81.719    -7.182
546.002     81.828    -7.062
553.943     82.030    -6.944
562.001     82.234    -6.829
570.175     82.359    -6.715
578.469     82.366    -6.604
586.883     82.251    -6.494
595.419     82.027    -6.387
604.080     81.712    -6.281
612.866     81.334    -6.177
621.780     80.956    -6.075
630.824     80.668    -5.975
640.000     80.555    -5.877
649.309     80.622    -5.780
658.753     80.767    -5.686
668.335     80.854    -5.593
678.056     80.815    -5.501
687.919     80.707    -5.412
697.925     80.661    -5.324
708.077     80.777    -5.237
718.376     80.887    -5.153
728.825     80.894    -5.069
739.426     80.652    -4.988
750.181     80.182    -4.907
761.093     79.662    -4.828
772.163     79.322    -4.751
783.394     79.249    -4.675
794.789     79.335    -4.600
806.349     79.400    -4.527
818.078     79.338    -4.455
829.977     79.134    -4.384
842.050     78.846    -4.315
854.298     78.587    -4.247
866.724     78.449    -4.180
879.330     78.391    -4.114
892.120     78.238    -4.049
905.097     77.874    -3.986
918.262     77.467    -3.923
931.618     77.420    -3.862
945.169     77.741    -3.802
958.917     78.131    -3.743
972.864     78.240    -3.685
987.015     78.055    -3.627
1001.37     77.819    -3.571
1015.94     77.668    -3.516
1030.71     77.552    -3.462
1045.71     77.481    -3.409
1060.92     77.531    -3.356
1076.35     77.547    -3.305
1092.00     77.382    -3.254
1107.89     77.286    -3.204
1124.00     77.509    -3.155
1140.35     77.816    -3.107
1156.94     77.791    -3.060
1173.77     77.376    -3.013
1190.84     76.955    -2.967
1208.16     77.053    -2.922
1225.73     77.443    -2.878
1243.56     77.562    -2.835
1261.65     77.502    -2.792
1280.00     77.624    -2.750
1298.62     77.735    -2.708
1317.51     77.596    -2.667
1336.67     77.347    -2.627
1356.11     77.102    -2.588
1375.84     77.140    -2.549
1395.85     77.270    -2.511
1416.15     77.072    -2.473
1436.75     76.572    -2.436
1457.65     76.202    -2.400
1478.85     76.174    -2.364
1500.36     75.910    -2.329
1522.19     74.859    -2.294
1544.33     74.254    -2.260
1566.79     74.411    -2.227
1589.58     74.949    -2.194
1612.70     75.559    -2.161
1636.16     76.072    -2.129
1659.95     76.156    -2.098
1684.10     76.043    -2.067
1708.60     76.219    -2.036
1733.45     76.426    -2.006
1758.66     76.269    -1.976
1784.24     75.702    -1.947
1810.19     75.331    -1.919
1836.52     75.682    -1.890
1863.24     75.755    -1.863
1890.34     75.305    -1.835
1917.83     75.201    -1.808
1945.73     75.220    -1.782
1974.03     75.242    -1.756
2002.74     75.384    -1.730
2031.87     75.307    -1.704
2061.43     75.012    -1.679
2091.41     75.071    -1.655
2121.83     75.376    -1.631
2152.69     75.376    -1.607
2184.01     75.455    -1.583
2215.77     75.706    -1.560
2248.00     75.955    -1.537
2280.70     76.206    -1.515
2313.87     76.384    -1.493
2347.53     76.277    -1.471
2381.68     76.017    -1.450
2416.32     76.027    -1.429
2451.46     76.099    -1.408
2487.12     75.902    -1.387
2523.30     75.524    -1.367
2560.00     75.522    -1.347
2597.24     75.582    -1.328
2635.01     75.037    -1.308
2673.34     74.908    -1.289
2712.23     75.144    -1.271
2751.68     75.040    -1.252
2791.70     74.971    -1.234
2832.31     74.583    -1.216
2873.50     74.194    -1.199
2915.30     74.101    -1.181
2957.70     74.090    -1.164
3000.72     74.048    -1.147
3044.37     73.722    -1.131
3088.65     74.027    -1.114
3133.58     74.900    -1.098
3179.16     75.171    -1.082
3225.40     75.110    -1.067
3272.31     74.866    -1.051
3319.91     75.004    -1.036
3368.20     75.677    -1.021
3417.19     75.942    -1.006
3466.89     75.972    -0.992
3517.32     76.031    -0.977
3568.48     75.912    -0.963
3620.39     75.941    -0.949
3673.05     76.321    -0.936
3726.47     76.670    -0.922
3780.67     76.781    -0.909
3835.67     76.642    -0.896
3891.46     76.418    -0.883
3948.06     76.407    -0.870
4005.49     76.011    -0.858
4063.75     75.371    -0.845
4122.86     75.486    -0.833
4182.82     75.603    -0.821
4243.66     75.409    -0.809
4305.39     75.159    -0.797
4368.01     74.909    -0.786
4431.55     74.961    -0.775
4496.01     75.387    -0.763
4561.40     75.510    -0.752
4627.75     75.328    -0.742
4695.06     75.352    -0.731
4763.35     75.361    -0.720
4832.64     75.528    -0.710
4902.93     75.457    -0.700
4974.24     75.406    -0.690
5046.60     75.690    -0.680
5120.00     75.803    -0.670
5194.47     75.919    -0.660
5270.03     75.975    -0.651
5346.68     75.765    -0.642
5424.45     75.552    -0.632
5503.35     75.268    -0.623
5583.40     74.865    -0.614
5664.61     74.396    -0.605
5747.01     74.104    -0.597
5830.60     74.064    -0.588
5915.41     73.808    -0.580
6001.45     73.599    -0.571
6088.74     73.818    -0.563
6177.30     73.956    -0.555
6267.15     73.848    -0.547
6358.31     73.907    -0.539
6450.80     74.117    -0.531
6544.62     74.203    -0.524
6639.82     74.090    -0.516
6736.40     73.982    -0.509
6834.38     73.806    -0.502
6933.79     73.494    -0.494
7034.64     72.856    -0.487
7136.96     71.939    -0.480
7240.77     71.410    -0.473
7346.09     70.778    -0.467
7452.94     69.918    -0.460
7561.35     69.601    -0.453
7671.33     69.395    -0.447
7782.91     69.011    -0.440
7896.12     69.027    -0.434
8010.97     69.002    -0.428
8127.49     68.461    -0.422
8245.71     68.309    -0.416
8365.65     68.534    -0.410
8487.33     68.971    -0.404
8610.78     69.568    -0.398
8736.03     69.984    -0.392
8863.09     70.235    -0.387
8992.01     70.116    -0.381
9122.80     69.990    -0.376
9255.50     69.805    -0.370
9390.12     69.534    -0.365
9526.70     69.613    -0.360
9665.27     70.174    -0.355
9805.86     70.935    -0.349
9948.49     71.334    -0.344
10093.2     71.243    -0.339
10240.0     70.777    -0.335
10388.9     70.240    -0.330
10540.1     69.679    -0.325
10693.4     69.109    -0.320
10848.9     68.848    -0.316
11006.7     68.878    -0.311
11166.8     68.980    -0.307
11329.2     68.988    -0.302
11494.0     68.780    -0.298
11661.2     68.347    -0.294
11830.8     67.832    -0.290
12002.9     67.582    -0.285
12177.5     67.375    -0.281
12354.6     66.828    -0.277
12534.3     66.176    -0.273
12716.6     65.361    -0.269
12901.6     64.146    -0.266
13089.2     62.604    -0.262
13279.6     61.426    -0.258
13472.8     60.681    -0.254
13668.8     60.084    -0.251
13867.6     60.064    -0.247
14069.3     59.856    -0.243
14273.9     58.547    -0.240
14481.5     56.693    -0.237
14692.2     56.402    -0.233
14905.9     58.969    -0.230
15122.7     61.826    -0.227
15342.7     63.024    -0.223
15565.8     63.544    -0.220
15792.2     63.864    -0.217
16021.9     63.835    -0.214
16255.0     63.812    -0.211
16491.4     63.945    -0.208
16731.3     63.923    -0.205
16974.7     63.829    -0.202
17221.6     64.188    -0.199
17472.1     65.188    -0.196
17726.2     66.657    -0.193
17984.0     68.251    -0.190
18245.6     69.578    -0.188
18511.0     70.426    -0.185
18780.2     70.864    -0.182
19053.4     71.214    -0.180
19330.5     71.475    -0.177
19611.7     71.393    -0.175
19897.0     70.914    -0.172
20186.4     70.890    -0.170
20480.0     70.866    -0.167
20777.9     70.841    -0.165
21080.1     70.817    -0.162
21386.7     70.792    -0.160
21697.8     70.768    -0.158
22013.4     70.743    -0.156
22333.6     70.719    -0.153
22658.4     70.694    -0.151
22988.0     70.670    -0.149
23322.4     70.646    -0.147
23661.6     70.621    -0.145
24005.8     70.597    -0.143
24355.0     70.572    -0.141
24709.2     70.548    -0.139
25068.6     70.523    -0.137
25433.2     70.499    -0.135
25803.2     70.474    -0.133
26178.5     70.450    -0.131
26559.3     70.426    -0.129
26945.6     70.401    -0.127
27337.5     70.377    -0.125
27735.2     70.352    -0.123
28138.6     70.328    -0.122
28547.9     70.303    -0.120
28963.1     70.279    -0.118
29384.4     70.254    -0.117
29811.8     70.230    -0.115
30245.4     70.206    -0.113
30685.3     70.181    -0.112
31131.7     70.157    -0.110
31584.5     70.132    -0.108
32043.9     70.108    -0.107
32510.0     70.083    -0.105
32982.8     70.059    -0.104
33462.6     70.034    -0.102
33949.3     70.010    -0.101
34443.1     69.986    -0.099
34944.1     69.961    -0.098
35452.4     69.937    -0.097
35968.0     69.912    -0.095
36491.2     69.888    -0.094
37022.0     69.863    -0.093
37560.5     69.839    -0.091
38106.8     69.814    -0.090
38661.1     69.790    -0.089
39223.4     69.766    -0.087
39793.9     69.741    -0.086
