"CEA2034"													
"On Axis"		"Listening Window"		"Early Reflections"		"Sound Power"		"Sound Power DI"		"Early Reflections DI"		"DI offset"	
"Frequency [Hz]"	"Sound Pessure Level [dB]  / [2.83V 1m] "	"Frequency [Hz]"	"Sound Pessure Level [dB]  / [2.83V 1m] "	"Frequency [Hz]"	"Sound Pessure Level [dB]  / [2.83V 1m] "	"Frequency [Hz]"	"Sound Pessure Level [dB]  / [2.83V 1m] "	"Frequency [Hz]"	"Sound Pessure Level [dB]  / [2.83V 1m] "	"Frequency [Hz]"	"Sound Pessure Level [dB]  / [2.83V 1m] "	"Frequency [Hz]"	"Sound Pessure Level [dB]  / [2.83V 1m] "
20.5078	68.8822	20.5078	68.8672	20.5078	68.7176	20.5078	68.4732	20.5078	50.3733	20.5078	50.1289	20.5078	49.9794
21.9727	69.8662	21.9727	69.8492	21.9727	69.6725	21.9727	69.3651	21.9727	50.4635	21.9727	50.1561	21.9727	49.9794
23.4375	70.9311	23.4375	70.9155	23.4375	70.7505	23.4375	70.4681	23.4375	50.4268	23.4375	50.1444	23.4375	49.9794
24.9023	71.5888	24.9023	71.5703	24.9023	71.3851	24.9023	71.0732	24.9023	50.4765	24.9023	50.1646	24.9023	49.9794
26.3672	72.0357	26.3672	72.0211	26.3672	71.8597	26.3672	71.5732	26.3672	50.4273	26.3672	50.1408	26.3672	49.9794
27.832	73.2659	27.832	73.2448	27.832	73.0435	27.832	72.7037	27.832	50.5205	27.832	50.1807	27.832	49.9794
29.2969	73.7948	29.2969	73.7724	29.2969	73.5636	29.2969	73.2143	29.2969	50.5375	29.2969	50.1882	29.2969	49.9794
30.7617	74.5494	30.7617	74.5248	30.7617	74.302	30.7617	73.9422	30.7617	50.562	30.7617	50.2022	30.7617	49.9794
32.2266	75.1796	32.2266	75.1561	32.2266	74.9431	32.2266	74.5983	32.2266	50.5373	32.2266	50.1924	32.2266	49.9794
33.6914	75.5818	33.6914	75.5596	33.6914	75.356	33.6914	75.0265	33.6914	50.5125	33.6914	50.1831	33.6914	49.9794
35.1562	76.1863	35.1562	76.1603	35.1562	75.9291	35.1562	75.5488	35.1562	50.5909	35.1562	50.2106	35.1562	49.9794
36.6211	76.8056	36.6211	76.7782	36.6211	76.5397	36.6211	76.1551	36.6211	50.6025	36.6211	50.218	36.6211	49.9794
38.0859	77.4449	38.0859	77.4161	38.0859	77.1666	38.0859	76.76	38.0859	50.6356	38.0859	50.2289	38.0859	49.9794
39.5508	78.0103	39.5508	77.9821	39.5508	77.7397	39.5508	77.3505	39.5508	50.611	39.5508	50.2218	39.5508	49.9794
41.0156	78.8438	41.0156	78.8207	41.0156	78.6217	41.0156	78.3166	41.0156	50.4835	41.0156	50.1785	41.0156	49.9794
42.4805	78.9978	42.4805	78.9706	42.4805	78.749	42.4805	78.4241	42.4805	50.5259	42.4805	50.201	42.4805	49.9794
43.9453	79.4818	43.9453	79.4522	43.9453	79.2166	43.9453	78.8713	43.9453	50.5604	43.9453	50.215	43.9453	49.9794
45.4102	79.9806	45.4102	79.9502	45.4102	79.7098	45.4102	79.3584	45.4102	50.5712	45.4102	50.2198	45.4102	49.9794
46.875	80.4238	46.875	80.3932	46.875	80.158	46.875	79.8213	46.875	50.5513	46.875	50.2146	46.875	49.9794
48.3398	80.8555	48.3398	80.8242	48.3398	80.5872	48.3398	80.2535	48.3398	50.5501	48.3398	50.2164	48.3398	49.9794
51.2695	81.754	51.2695	81.7177	51.2695	81.4502	51.2695	81.0808	51.2695	50.6162	51.2695	50.2468	51.2695	49.9794
52.7344	82.1748	52.7344	82.1376	52.7344	81.8677	52.7344	81.4962	52.7344	50.6207	52.7344	50.2493	52.7344	49.9794
54.1992	82.4894	54.1992	82.452	54.1992	82.1898	54.1992	81.8408	54.1992	50.5906	54.1992	50.2415	54.1992	49.9794
55.6641	82.8596	55.6641	82.8216	55.6641	82.5582	55.6641	82.2134	55.6641	50.5876	55.6641	50.2427	55.6641	49.9794
58.5938	83.5556	58.5938	83.5136	58.5938	83.2236	58.5938	82.8385	58.5938	50.6544	58.5938	50.2694	58.5938	49.9794
60.0586	83.9261	60.0586	83.8831	60.0586	83.5958	60.0586	83.2308	60.0586	50.6317	60.0586	50.2667	60.0586	49.9794
62.9883	84.5865	62.9883	84.5398	62.9883	84.2341	62.9883	83.8541	62.9883	50.6651	62.9883	50.2851	62.9883	49.9794
64.4531	84.9046	64.4531	84.8555	64.4531	84.5379	64.4531	84.1511	64.4531	50.6838	64.4531	50.297	64.4531	49.9794
67.3828	85.4702	67.3828	85.4184	67.3828	85.0889	67.3828	84.7039	67.3828	50.6939	67.3828	50.3089	67.3828	49.9794
68.8477	85.7282	68.8477	85.6761	68.8477	85.3472	68.8477	84.9687	68.8477	50.6868	68.8477	50.3083	68.8477	49.9794
71.7773	86.3359	71.7773	86.2798	71.7773	85.9368	71.7773	85.5466	71.7773	50.7126	71.7773	50.3224	71.7773	49.9794
74.707	86.9076	74.707	86.848	74.707	86.4941	74.707	86.0961	74.707	50.7313	74.707	50.3333	74.707	49.9794
77.6367	87.3509	77.6367	87.2876	77.6367	86.9215	77.6367	86.5301	77.6367	50.7369	77.6367	50.3455	77.6367	49.9794
79.1016	87.5534	79.1016	87.4876	79.1016	87.1093	79.1016	86.7109	79.1016	50.7561	79.1016	50.3576	79.1016	49.9794
82.0312	87.9578	82.0312	87.8876	82.0312	87.4858	82.0312	87.0619	82.0312	50.8052	82.0312	50.3813	82.0312	49.9794
84.9609	88.2612	84.9609	88.1889	84.9609	87.7784	84.9609	87.3476	84.9609	50.8207	84.9609	50.3899	84.9609	49.9794
87.8906	88.391	87.8906	88.3167	87.8906	87.9154	87.8906	87.5369	87.8906	50.7592	87.8906	50.3807	87.8906	49.9794
90.8203	88.6782	90.8203	88.5948	90.8203	88.1471	90.8203	87.7253	90.8203	50.8489	90.8203	50.4271	90.8203	49.9794
95.2148	88.9982	95.2148	88.9047	95.2148	88.3962	95.2148	87.8917	95.2148	50.9923	95.2148	50.4879	95.2148	49.9794
98.1445	89.0904	98.1445	88.992	98.1445	88.4629	98.1445	87.9306	98.1445	51.0408	98.1445	50.5085	98.1445	49.9794
101.074	89.0239	101.074	88.9205	101.074	88.3736	101.074	87.826	101.074	51.0739	101.074	50.5263	101.074	49.9794
105.469	89.1931	105.469	89.0826	105.469	88.5004	105.469	87.9052	105.469	51.1568	105.469	50.5616	105.469	49.9794
108.398	89.4402	108.398	89.3232	108.398	88.7007	108.398	88.0478	108.398	51.2547	108.398	50.6019	108.398	49.9794
112.793	89.5139	112.793	89.3875	112.793	88.7244	112.793	88.052	112.793	51.315	112.793	50.6426	112.793	49.9794
117.188	89.4875	117.188	89.356	117.188	88.6815	117.188	88.0277	117.188	51.3077	117.188	50.654	117.188	49.9794
120.117	89.5075	120.117	89.3701	120.117	88.6655	120.117	87.9798	120.117	51.3697	120.117	50.684	120.117	49.9794
124.512	89.4676	124.512	89.3233	124.512	88.5897	124.512	87.895	124.512	51.4077	124.512	50.713	124.512	49.9794
128.906	89.3643	128.906	89.2141	128.906	88.4511	128.906	87.7343	128.906	51.4592	128.906	50.7423	128.906	49.9794
133.301	89.256	133.301	89.0976	133.301	88.2972	133.301	87.5601	133.301	51.5168	133.301	50.7797	133.301	49.9794
139.16	89.2051	139.16	89.032	139.16	88.1576	139.16	87.3366	139.16	51.6748	139.16	50.8538	139.16	49.9794
143.555	89.1296	143.555	88.9496	143.555	88.0404	143.555	87.1698	143.555	51.7592	143.555	50.8886	143.555	49.9794
147.949	89.0613	147.949	88.8705	147.949	87.9132	147.949	86.9939	147.949	51.856	147.949	50.9367	147.949	49.9794
153.809	89.0021	153.809	88.7924	153.809	87.7356	153.809	86.6954	153.809	52.0764	153.809	51.0361	153.809	49.9794
159.668	89.2487	159.668	89.0366	159.668	87.9881	159.668	86.996	159.668	52.02	159.668	51.0279	159.668	49.9794
165.527	89.3621	165.527	89.1373	165.527	88.0584	165.527	87.0766	165.527	52.04	165.527	51.0582	165.527	49.9794
171.387	89.4553	171.387	89.2207	171.387	88.0728	171.387	86.9747	171.387	52.2254	171.387	51.1272	171.387	49.9794
177.246	89.2307	177.246	88.9904	177.246	87.8389	177.246	86.7768	177.246	52.193	177.246	51.1309	177.246	49.9794
183.105	89.3367	183.105	89.077	183.105	87.8402	183.105	86.6579	183.105	52.3985	183.105	51.2163	183.105	49.9794
188.965	89.5288	188.965	89.2481	188.965	87.9286	188.965	86.675	188.965	52.5525	188.965	51.2989	188.965	49.9794
196.289	89.7063	196.289	89.4121	196.289	88.0353	196.289	86.8093	196.289	52.5822	196.289	51.3562	196.289	49.9794
203.613	90.2807	203.613	89.9703	203.613	88.4772	203.613	86.8174	203.613	53.1323	203.613	51.4725	203.613	49.9794
210.938	89.9875	210.938	89.6827	210.938	88.2464	210.938	86.6279	210.938	53.0343	210.938	51.4157	210.938	49.9794
218.262	89.8035	218.262	89.4762	218.262	88.0006	218.262	86.5882	218.262	52.8674	218.262	51.4551	218.262	49.9794
225.586	90.5572	225.586	90.2083	225.586	88.61	225.586	86.9853	225.586	53.2024	225.586	51.5777	225.586	49.9794
232.91	90.6277	232.91	90.2737	232.91	88.6512	232.91	86.859	232.91	53.3942	232.91	51.602	232.91	49.9794
241.699	90.2735	241.699	89.9125	241.699	88.3092	241.699	86.5262	241.699	53.3657	241.699	51.5827	241.699	49.9794
250.488	91.2491	250.488	90.8482	250.488	89.0256	250.488	87.018	250.488	53.8096	250.488	51.802	250.488	49.9794
259.277	90.6146	259.277	90.2425	259.277	88.5527	259.277	86.8001	259.277	53.4218	259.277	51.6693	259.277	49.9794
268.066	90.0446	268.066	89.647	268.066	87.8873	268.066	86.1009	268.066	53.5255	268.066	51.7391	268.066	49.9794
276.855	90.0375	276.855	89.6317	276.855	87.8658	276.855	86.0028	276.855	53.6082	276.855	51.7453	276.855	49.9794
287.109	89.7914	287.109	89.3524	287.109	87.6018	287.109	85.7707	287.109	53.5611	287.109	51.73	287.109	49.9794
297.363	90.51	297.363	90.0275	297.363	88.0414	297.363	85.8198	297.363	54.1871	297.363	51.9654	297.363	49.9794
307.617	89.5947	307.617	89.181	307.617	87.4985	307.617	85.6858	307.617	53.4747	307.617	51.6619	307.617	49.9794
319.336	89.2782	319.336	88.799	319.336	86.9078	319.336	85.1298	319.336	53.6486	319.336	51.8706	319.336	49.9794
329.59	88.6352	329.59	88.2077	329.59	86.419	329.59	84.6977	329.59	53.4895	329.59	51.7682	329.59	49.9794
341.309	88.3033	341.309	87.776	341.309	85.8653	341.309	84.3493	341.309	53.4061	341.309	51.8901	341.309	49.9794
353.027	88.8925	353.027	88.3516	353.027	86.2433	353.027	84.22	353.027	54.111	353.027	52.0877	353.027	49.9794
366.211	89.7156	366.211	89.1458	366.211	86.9339	366.211	84.5711	366.211	54.5541	366.211	52.1913	366.211	49.9794
379.395	89.2689	379.395	88.7523	379.395	86.7203	379.395	84.6975	379.395	54.0342	379.395	52.0114	379.395	49.9794
392.578	89.1612	392.578	88.5854	392.578	86.3998	392.578	84.3849	392.578	54.1799	392.578	52.165	392.578	49.9794
405.762	89.2994	405.762	88.6698	405.762	86.2659	405.762	84.1868	405.762	54.4624	405.762	52.3833	405.762	49.9794
420.41	89.3022	420.41	88.7023	420.41	86.4138	420.41	84.4174	420.41	54.2644	420.41	52.2679	420.41	49.9794
435.059	89.7959	435.059	89.1576	435.059	86.7216	435.059	84.7607	435.059	54.3762	435.059	52.4154	435.059	49.9794
451.172	90.8671	451.172	90.2328	451.172	87.6931	451.172	84.6749	451.172	55.5373	451.172	52.5191	451.172	49.9794
465.82	89.9391	465.82	89.4204	465.82	87.1279	465.82	84.5776	465.82	54.8222	465.82	52.2719	465.82	49.9794
483.398	89.632	483.398	89.036	483.398	86.8055	483.398	85.0437	483.398	53.9716	483.398	52.2098	483.398	49.9794
499.512	90.67	499.512	90.0073	499.512	87.4832	499.512	85.2327	499.512	54.754	499.512	52.5035	499.512	49.9794
517.09	91.0347	517.09	90.3258	517.09	87.6624	517.09	85.2404	517.09	55.0648	517.09	52.6428	517.09	49.9794
536.133	91.5394	536.133	90.8165	536.133	88.0416	536.133	84.946	536.133	55.85	536.133	52.7543	536.133	49.9794
555.176	91.2863	555.176	90.751	555.176	88.3107	555.176	85.2273	555.176	55.5032	555.176	52.4197	555.176	49.9794
574.219	91.3515	574.219	90.7905	574.219	88.3626	574.219	85.3213	574.219	55.4485	574.219	52.4073	574.219	49.9794
594.727	91.123	594.727	90.6058	594.727	88.1911	594.727	85.2879	594.727	55.2973	594.727	52.394	594.727	49.9794
615.234	90.5069	615.234	90.1578	615.234	88.0346	615.234	85.1881	615.234	54.9491	615.234	52.1026	615.234	49.9794
637.207	90.7761	637.207	90.3276	637.207	88.0932	637.207	85.0795	637.207	55.2275	637.207	52.2138	637.207	49.9794
659.18	89.8132	659.18	89.5124	659.18	87.3426	659.18	84.6181	659.18	54.8738	659.18	52.1492	659.18	49.9794
682.617	89.6	682.617	89.4576	682.617	87.4671	682.617	84.9358	682.617	54.5013	682.617	51.9699	682.617	49.9794
707.52	89.2744	707.52	89.2343	707.52	87.5617	707.52	84.6974	707.52	54.5164	707.52	51.652	707.52	49.9794
732.422	87.8156	732.422	88.332	732.422	87.0234	732.422	84.3996	732.422	53.9118	732.422	51.288	732.422	49.9794
757.324	88.028	757.324	88.4505	757.324	87.1866	757.324	84.6618	757.324	53.768	757.324	51.2433	757.324	49.9794
785.156	87.2421	785.156	88.0364	785.156	87.0621	785.156	84.3135	785.156	53.7023	785.156	50.9538	785.156	49.9794
811.523	87.0268	811.523	87.8575	811.523	86.8191	811.523	84.3114	811.523	53.5255	811.523	51.0178	811.523	49.9794
840.82	86.853	840.82	87.8248	840.82	86.5872	840.82	84.1778	840.82	53.6264	840.82	51.217	840.82	49.9794
870.117	86.2273	870.117	87.9597	870.117	86.8544	870.117	84.1921	870.117	53.747	870.117	51.0847	870.117	49.9794
900.879	87.5277	900.879	88.7511	900.879	87.6114	900.879	84.9415	900.879	53.7891	900.879	51.1192	900.879	49.9794
933.105	86.9421	933.105	88.5146	933.105	87.4343	933.105	84.7572	933.105	53.7368	933.105	51.0597	933.105	49.9794
965.332	87.4405	965.332	88.6066	965.332	87.4153	965.332	84.7832	965.332	53.8028	965.332	51.1707	965.332	49.9794
1,000.49	86.4332	1,000.49	87.7828	1,000.49	86.7471	1,000.49	84.3516	1,000.49	53.4106	1,000.49	51.0151	1,000.49	49.9794
1,035.64	87.0372	1,035.64	87.8777	1,035.64	86.6594	1,035.64	84.0432	1,035.64	53.8139	1,035.64	51.1977	1,035.64	49.9794
1,072.27	86.1915	1,072.27	87.1758	1,072.27	86.532	1,072.27	84.0194	1,072.27	53.1358	1,072.27	50.6232	1,072.27	49.9794
1,108.89	86.4672	1,108.89	86.9517	1,108.89	86.2792	1,108.89	83.9528	1,108.89	52.9783	1,108.89	50.6519	1,108.89	49.9794
1,148.44	86.971	1,148.44	86.551	1,148.44	86.1795	1,148.44	84.0453	1,148.44	52.4852	1,148.44	50.351	1,148.44	49.9794
1,189.45	87.2662	1,189.45	86.8372	1,189.45	86.1028	1,189.45	83.7529	1,189.45	53.0637	1,189.45	50.7139	1,189.45	49.9794
1,230.47	87.9985	1,230.47	87.2897	1,230.47	86.5986	1,230.47	83.9902	1,230.47	53.2789	1,230.47	50.6705	1,230.47	49.9794
1,274.41	88.6056	1,274.41	87.5483	1,274.41	86.5903	1,274.41	83.8061	1,274.41	53.7216	1,274.41	50.9374	1,274.41	49.9794
1,319.82	89.6899	1,319.82	88.4257	1,319.82	87.1273	1,319.82	84.0542	1,319.82	54.3509	1,319.82	51.2777	1,319.82	49.9794
1,366.7	89.6771	1,366.7	88.7642	1,366.7	87.6472	1,366.7	84.7539	1,366.7	53.9897	1,366.7	51.0964	1,366.7	49.9794
1,413.57	90.0449	1,413.57	88.9497	1,413.57	87.9801	1,413.57	84.9391	1,413.57	53.99	1,413.57	50.949	1,413.57	49.9794
1,463.38	90.2116	1,463.38	89.0396	1,463.38	87.7561	1,463.38	84.6823	1,463.38	54.3368	1,463.38	51.2629	1,463.38	49.9794
1,516.11	89.8534	1,516.11	88.588	1,516.11	87.1049	1,516.11	84.2201	1,516.11	54.3473	1,516.11	51.4625	1,516.11	49.9794
1,568.85	88.9007	1,568.85	88.1546	1,568.85	86.7301	1,568.85	83.8954	1,568.85	54.2386	1,568.85	51.4039	1,568.85	49.9794
1,624.51	89.6274	1,624.51	89.0366	1,624.51	87.401	1,624.51	84.1175	1,624.51	54.8986	1,624.51	51.615	1,624.51	49.9794
1,681.64	90.2007	1,681.64	89.6812	1,681.64	87.9241	1,681.64	84.3905	1,681.64	55.27	1,681.64	51.7364	1,681.64	49.9794
1,741.7	90.3206	1,741.7	89.9332	1,741.7	88.3297	1,741.7	84.5776	1,741.7	55.3351	1,741.7	51.583	1,741.7	49.9794
1,803.22	90.5992	1,803.22	90.0099	1,803.22	87.9045	1,803.22	84.1428	1,803.22	55.8465	1,803.22	52.0848	1,803.22	49.9794
1,866.21	89.7783	1,866.21	89.2707	1,866.21	87.1631	1,866.21	83.5356	1,866.21	55.7145	1,866.21	52.087	1,866.21	49.9794
1,932.13	89.9949	1,932.13	89.2812	1,932.13	86.9201	1,932.13	83.2341	1,932.13	56.0264	1,932.13	52.3405	1,932.13	49.9794
1,999.51	90.9787	1,999.51	90.0971	1,999.51	87.4342	1,999.51	83.43	1,999.51	56.6465	1,999.51	52.6423	1,999.51	49.9794
2,069.82	91.664	2,069.82	90.7784	2,069.82	87.8865	2,069.82	83.675	2,069.82	57.0827	2,069.82	52.8713	2,069.82	49.9794
2,143.07	90.8783	2,143.07	90.3893	2,143.07	87.5213	2,143.07	83.3687	2,143.07	57	2,143.07	52.8474	2,143.07	49.9794
2,219.24	89.0294	2,219.24	88.9536	2,219.24	86.2052	2,219.24	82.3237	2,219.24	56.6093	2,219.24	52.7278	2,219.24	49.9794
2,296.88	88.1391	2,296.88	88.3094	2,296.88	85.9681	2,296.88	82.0955	2,296.88	56.1933	2,296.88	52.3207	2,296.88	49.9794
2,378.91	88.1407	2,378.91	88.8473	2,378.91	86.4895	2,378.91	82.5358	2,378.91	56.2908	2,378.91	52.3372	2,378.91	49.9794
2,462.4	89.1737	2,462.4	90.0187	2,462.4	87.5229	2,462.4	83.4542	2,462.4	56.5439	2,462.4	52.4752	2,462.4	49.9794
2,548.83	88.7742	2,548.83	89.7967	2,548.83	87.2144	2,548.83	83.2917	2,548.83	56.4844	2,548.83	52.5617	2,548.83	49.9794
2,639.65	86.9454	2,639.65	88.2497	2,639.65	86.0177	2,639.65	82.713	2,639.65	55.5162	2,639.65	52.2114	2,639.65	49.9794
2,731.93	87.4345	2,731.93	87.7691	2,731.93	85.6372	2,731.93	82.2522	2,731.93	55.4963	2,731.93	52.1112	2,731.93	49.9794
2,828.61	88.4758	2,828.61	88.4332	2,828.61	86.2992	2,828.61	82.8731	2,828.61	55.5395	2,828.61	52.1134	2,828.61	49.9794
2,928.22	88.7714	2,928.22	88.6529	2,928.22	86.676	2,928.22	83.3405	2,928.22	55.2918	2,928.22	51.9563	2,928.22	49.9794
3,030.76	88.6466	3,030.76	88.3677	3,030.76	86.5704	3,030.76	83.3002	3,030.76	55.0469	3,030.76	51.7767	3,030.76	49.9794
3,137.7	88.8125	3,137.7	87.9755	3,137.7	86.5017	3,137.7	83.1822	3,137.7	54.7727	3,137.7	51.4532	3,137.7	49.9794
3,249.02	88.0726	3,249.02	87.4383	3,249.02	86.1086	3,249.02	82.8	3,249.02	54.6177	3,249.02	51.3092	3,249.02	49.9794
3,363.28	87.6535	3,363.28	87.1076	3,363.28	85.782	3,363.28	82.4476	3,363.28	54.6395	3,363.28	51.3051	3,363.28	49.9794
3,481.93	87.6419	3,481.93	87.1365	3,481.93	85.8634	3,481.93	82.5706	3,481.93	54.5454	3,481.93	51.2525	3,481.93	49.9794
3,604.98	87.5187	3,604.98	87.4026	3,604.98	85.9671	3,604.98	82.737	3,604.98	54.6451	3,604.98	51.4149	3,604.98	49.9794
3,732.42	88.6138	3,732.42	88.0444	3,732.42	86.1117	3,732.42	82.6945	3,732.42	55.3294	3,732.42	51.9121	3,732.42	49.9794
3,864.26	87.3393	3,864.26	86.8899	3,864.26	85.3823	3,864.26	82.1678	3,864.26	54.7015	3,864.26	51.487	3,864.26	49.9794
4,000.49	87.4615	4,000.49	86.656	4,000.49	84.9473	4,000.49	81.675	4,000.49	54.9604	4,000.49	51.6881	4,000.49	49.9794
4,141.11	88.536	4,141.11	87.2118	4,141.11	85.3502	4,141.11	81.7226	4,141.11	55.4685	4,141.11	51.841	4,141.11	49.9794
4,287.6	88.8297	4,287.6	87.2452	4,287.6	85.3381	4,287.6	81.5582	4,287.6	55.6665	4,287.6	51.8865	4,287.6	49.9794
4,438.48	88.0659	4,438.48	87.8767	4,438.48	85.7976	4,438.48	81.9398	4,438.48	55.9163	4,438.48	52.0585	4,438.48	49.9794
4,595.21	89.0228	4,595.21	87.8625	4,595.21	85.8416	4,595.21	81.7901	4,595.21	56.0518	4,595.21	52.0003	4,595.21	49.9794
4,756.35	90.1165	4,756.35	88.8349	4,756.35	86.4515	4,756.35	82.2255	4,756.35	56.5888	4,756.35	52.3628	4,756.35	49.9794
4,924.8	89.9538	4,924.8	89.5117	4,924.8	86.7643	4,924.8	82.3224	4,924.8	57.1688	4,924.8	52.7268	4,924.8	49.9794
5,097.66	89.4848	5,097.66	89.4193	5,097.66	86.5595	5,097.66	82.0949	5,097.66	57.3037	5,097.66	52.8392	5,097.66	49.9794
5,277.83	90.0665	5,277.83	89.5358	5,277.83	86.4846	5,277.83	82.0807	5,277.83	57.4345	5,277.83	53.0306	5,277.83	49.9794
5,463.87	90.2689	5,463.87	89.4007	5,463.87	86.5266	5,463.87	82.0097	5,463.87	57.3705	5,463.87	52.8536	5,463.87	49.9794
5,657.23	89.4453	5,657.23	89.2241	5,657.23	86.3677	5,657.23	81.9847	5,657.23	57.2188	5,657.23	52.8358	5,657.23	49.9794
5,856.45	88.4323	5,856.45	88.5782	5,856.45	86.0004	5,856.45	81.6611	5,856.45	56.8965	5,856.45	52.5572	5,856.45	49.9794
6,062.99	87.4875	6,062.99	88.5577	6,062.99	86.0324	6,062.99	81.8035	6,062.99	56.7336	6,062.99	52.5047	6,062.99	49.9794
6,276.86	87.4786	6,276.86	87.7945	6,276.86	85.4278	6,276.86	81.3552	6,276.86	56.4188	6,276.86	52.3461	6,276.86	49.9794
6,498.05	87.4592	6,498.05	87.7208	6,498.05	85.2472	6,498.05	81.2585	6,498.05	56.4418	6,498.05	52.453	6,498.05	49.9794
6,726.56	87.3484	6,726.56	87.6439	6,726.56	85.0946	6,726.56	81.1518	6,726.56	56.4715	6,726.56	52.5287	6,726.56	49.9794
6,963.87	87.6875	6,963.87	87.456	6,963.87	85.0695	6,963.87	80.9773	6,963.87	56.4581	6,963.87	52.3659	6,963.87	49.9794
7,209.96	87.7335	7,209.96	87.6159	7,209.96	85.0755	7,209.96	81.0024	7,209.96	56.593	7,209.96	52.5199	7,209.96	49.9794
7,464.84	87.1094	7,464.84	87.0139	7,464.84	84.6207	7,464.84	80.5109	7,464.84	56.4823	7,464.84	52.3726	7,464.84	49.9794
7,727.05	87.9569	7,727.05	87.2482	7,727.05	84.576	7,727.05	80.3119	7,727.05	56.9157	7,727.05	52.6516	7,727.05	49.9794
7,999.51	87.8844	7,999.51	86.6848	7,999.51	84.1214	7,999.51	79.8315	7,999.51	56.8327	7,999.51	52.5427	7,999.51	49.9794
8,282.23	86.9483	8,282.23	86.644	8,282.23	83.8409	8,282.23	79.6212	8,282.23	57.0022	8,282.23	52.7825	8,282.23	49.9794
8,573.73	86.9873	8,573.73	86.6424	8,573.73	83.6054	8,573.73	79.4182	8,573.73	57.2036	8,573.73	53.0164	8,573.73	49.9794
8,876.95	86.8848	8,876.95	86.6859	8,876.95	83.8747	8,876.95	79.6182	8,876.95	57.0471	8,876.95	52.7906	8,876.95	49.9794
9,188.96	86.9837	9,188.96	86.7201	9,188.96	83.8891	9,188.96	79.446	9,188.96	57.2535	9,188.96	52.8105	9,188.96	49.9794
9,514.16	87.5266	9,514.16	87.0331	9,514.16	83.9445	9,514.16	79.3062	9,514.16	57.7063	9,514.16	53.0679	9,514.16	49.9794
9,849.61	87.6208	9,849.61	87.0134	9,849.61	83.799	9,849.61	79.0528	9,849.61	57.94	9,849.61	53.1938	9,849.61	49.9794
10,196.8	88.1557	10,196.8	87.1035	10,196.8	83.7716	10,196.8	78.9646	10,196.8	58.1183	10,196.8	53.3113	10,196.8	49.9794
10,555.7	88.222	10,555.7	87.3271	10,555.7	83.8519	10,555.7	79.0696	10,555.7	58.2369	10,555.7	53.4546	10,555.7	49.9794
10,927.7	88.7761	10,927.7	87.5067	10,927.7	83.8576	10,927.7	78.9526	10,927.7	58.5335	10,927.7	53.6285	10,927.7	49.9794
11,313	89.1374	11,313	87.5535	11,313	83.7447	11,313	78.735	11,313	58.7979	11,313	53.7882	11,313	49.9794
11,712.9	88.9774	11,712.9	87.4182	11,712.9	83.5413	11,712.9	78.5126	11,712.9	58.8851	11,712.9	53.8563	11,712.9	49.9794
12,126	88.5561	12,126	87.3611	12,126	83.4903	12,126	78.4162	12,126	58.9242	12,126	53.8501	12,126	49.9794
12,553.7	88.2005	12,553.7	87.2398	12,553.7	83.2711	12,553.7	78.1616	12,553.7	59.0577	12,553.7	53.9481	12,553.7	49.9794
12,996.1	87.8718	12,996.1	87.085	12,996.1	83.0101	12,996.1	77.91	12,996.1	59.1544	12,996.1	54.0542	12,996.1	49.9794
13,454.6	87.8968	13,454.6	87.0154	13,454.6	82.7969	13,454.6	77.6826	13,454.6	59.3122	13,454.6	54.1979	13,454.6	49.9794
13,929.2	88.0997	13,929.2	87.0962	13,929.2	82.8259	13,929.2	77.6552	13,929.2	59.4203	13,929.2	54.2496	13,929.2	49.9794
14,419.9	88.5553	14,419.9	87.1126	14,419.9	82.9043	14,419.9	77.6278	14,419.9	59.4642	14,419.9	54.1877	14,419.9	49.9794
14,928.2	88.9361	14,928.2	87.1471	14,928.2	82.8532	14,928.2	77.4542	14,928.2	59.6723	14,928.2	54.2733	14,928.2	49.9794
15,455.6	88.7964	15,455.6	87.0338	15,455.6	82.6735	15,455.6	77.2512	15,455.6	59.762	15,455.6	54.3397	15,455.6	49.9794
16,000.5	88.5621	16,000.5	86.8944	16,000.5	82.5264	16,000.5	77.1071	16,000.5	59.7667	16,000.5	54.3474	16,000.5	49.9794
16,564.5	88.1892	16,564.5	86.6703	16,564.5	82.3294	16,564.5	76.9007	16,564.5	59.7489	16,564.5	54.3203	16,564.5	49.9794
17,148.9	87.8705	17,148.9	86.4358	17,148.9	81.9734	17,148.9	76.4456	17,148.9	59.9696	17,148.9	54.4418	17,148.9	49.9794
17,752.4	87.3935	17,752.4	86.0597	17,752.4	81.5638	17,752.4	76.0053	17,752.4	60.0338	17,752.4	54.4752	17,752.4	49.9794
18,379.4	86.7729	18,379.4	85.5968	18,379.4	80.9673	18,379.4	75.3768	18,379.4	60.1994	18,379.4	54.609	18,379.4	49.9794
19,026.9	86.2094	19,026.9	85.1364	19,026.9	80.3961	19,026.9	74.7671	19,026.9	60.3487	19,026.9	54.7197	19,026.9	49.9794
19,697.8	85.6365	19,697.8	84.6361	19,697.8	79.7871	19,697.8	74.1199	19,697.8	60.4956	19,697.8	54.8284	19,697.8	49.9794
19,999.5	85.2253	19,999.5	84.4364	19,999.5	79.6178	19,999.5	73.9224	19,999.5	60.4934	19,999.5	54.798	19,999.5	49.9794
