"Horizontal Reflections"							
"Front"		"Side"		"Rear"		"Total Horizontal Reflection"	
"Frequency [Hz]"	"Sound Pessure Level [dB]  / [2.83V 1m] "	"Frequency [Hz]"	"Sound Pessure Level [dB]  / [2.83V 1m] "	"Frequency [Hz]"	"Sound Pessure Level [dB]  / [2.83V 1m] "	"Frequency [Hz]"	"Sound Pessure Level [dB]  / [2.83V 1m] "
20.5078	60.8768	20.5078	62.1088	20.5078	62.1968	20.5078	61.944
21.9727	51.0978	21.9727	51.9502	21.9727	54.0507	21.9727	53.0683
23.4375	58.3439	23.4375	60.0111	23.4375	61.5783	23.4375	60.6832
24.9023	49.8304	24.9023	49.1826	24.9023	54.3424	24.9023	52.6755
26.3672	55.1084	26.3672	57.4715	26.3672	61.6811	26.3672	59.9803
27.832	53.3114	27.832	53.6546	27.832	60.0627	27.832	58.0724
29.2969	58.4855	29.2969	59.7314	29.2969	64.7924	29.2969	62.9872
30.7617	60.5262	30.7617	61.8266	30.7617	67.2364	30.7617	65.3601
32.2266	64.723	32.2266	65.3961	32.2266	69.5294	32.2266	67.9761
33.6914	67.9281	33.6914	68.495	33.6914	71.8499	33.6914	70.5121
35.1562	70.516	35.1562	70.9378	35.1562	74.1796	35.1562	72.8901
36.6211	72.1999	36.6211	72.8722	36.6211	76.2606	36.6211	74.9023
38.0859	75.652	38.0859	76.2481	38.0859	78.8784	38.0859	77.7538
39.5508	77.5549	39.5508	78.1407	39.5508	80.7975	39.5508	79.6658
41.0156	80.1087	41.0156	80.5676	41.0156	82.5309	41.0156	81.647
42.4805	81.343	42.4805	81.7554	42.4805	83.5718	42.4805	82.7468
43.9453	82.8202	43.9453	83.241	43.9453	84.9939	43.9453	84.1909
45.4102	84.1022	45.4102	84.5175	45.4102	86.1383	45.4102	85.3848
46.875	85.2066	46.875	85.6192	46.875	87.1593	46.875	86.4363
48.3398	86.1958	48.3398	86.5918	48.3398	88.0048	48.3398	87.3326
51.2695	87.8397	51.2695	88.2092	51.2695	89.4319	51.2695	88.8378
52.7344	88.4872	52.7344	88.8537	52.7344	90.0023	52.7344	89.4381
54.1992	89.1219	54.1992	89.4817	54.1992	90.5477	54.1992	90.0177
55.6641	89.6919	55.6641	90.0325	55.6641	91.003	55.6641	90.5149
58.5938	90.6354	58.5938	90.961	58.5938	91.8152	58.5938	91.3776
60.0586	91.0439	60.0586	91.3574	60.0586	92.132	60.0586	91.7297
62.9883	91.6375	62.9883	91.9265	62.9883	92.5657	62.9883	92.2251
64.4531	91.8747	64.4531	92.1526	64.4531	92.7299	64.4531	92.4179
67.3828	92.1694	67.3828	92.4433	67.3828	92.9626	67.3828	92.6764
68.8477	92.3017	68.8477	92.5755	68.8477	93.0684	68.8477	92.7938
71.7773	92.537	71.7773	92.7826	71.7773	93.1539	71.7773	92.938
74.707	92.6347	74.707	92.8677	74.707	93.1584	74.707	92.9808
77.6367	92.6894	77.6367	92.9129	77.6367	93.1532	77.6367	93.0001
79.1016	92.7171	79.1016	92.9304	79.1016	93.1369	79.1016	93.0009
82.0312	92.7592	82.0312	92.957	82.0312	93.0926	82.0312	92.992
84.9609	92.8026	84.9609	92.9796	84.9609	93.0319	84.9609	92.9737
87.8906	92.7849	87.8906	92.9662	87.8906	93.0251	87.8906	92.963
90.8203	92.7197	90.8203	92.9128	90.8203	92.9839	90.8203	92.9139
95.2148	92.7682	95.2148	92.9272	95.2148	92.9272	95.2148	92.8967
98.1445	92.8173	98.1445	92.9487	98.1445	92.9003	98.1445	92.8979
101.074	92.7604	101.074	92.8851	101.074	92.7781	101.074	92.8047
105.469	92.8418	105.469	92.9522	105.469	92.7543	105.469	92.8271
108.398	92.7407	108.398	92.865	108.398	92.7225	108.398	92.7661
112.793	92.7018	112.793	92.8153	112.793	92.6527	112.793	92.708
117.188	92.7776	117.188	92.8626	117.188	92.669	117.188	92.7447
120.117	92.6698	120.117	92.758	120.117	92.6638	120.117	92.6913
124.512	92.7428	124.512	92.7592	124.512	92.5954	124.512	92.6703
128.906	92.94	128.906	92.8571	128.906	92.3947	128.906	92.6364
133.301	92.7812	133.301	92.7498	133.301	92.3414	133.301	92.5455
139.16	92.5499	139.16	92.5395	139.16	92.2654	139.16	92.3991
143.555	92.5644	143.555	92.4758	143.555	92.2364	143.555	92.3689
147.949	92.8468	147.949	92.5906	147.949	92.091	147.949	92.3882
153.809	92.8183	153.809	92.5333	153.809	91.7537	153.809	92.2016
159.668	92.7144	159.668	92.4784	159.668	91.6104	159.668	92.0938
165.527	92.6181	165.527	92.4229	165.527	91.7317	165.527	92.1137
171.387	92.5377	171.387	92.3005	171.387	91.5533	171.387	91.9736
177.246	92.4665	177.246	92.2614	177.246	91.6292	177.246	91.983
183.105	92.492	183.105	92.1471	183.105	91.5429	183.105	91.913
188.965	92.5262	188.965	92.1239	188.965	91.1575	188.965	91.7314
196.289	92.3974	196.289	91.9684	196.289	91.0432	196.289	91.6012
203.613	92.3183	203.613	91.8442	203.613	90.9768	203.613	91.5144
210.938	92.2522	210.938	91.747	210.938	90.7779	210.938	91.3775
218.262	92.0442	218.262	91.5565	218.262	90.5973	218.262	91.1874
225.586	91.9315	225.586	91.4309	225.586	90.516	225.586	91.0853
232.91	91.9505	232.91	91.3578	232.91	90.3892	232.91	91.0095
241.699	91.8234	241.699	91.2317	241.699	90.1795	241.699	90.845
250.488	92.1511	250.488	91.3669	250.488	89.9123	250.488	90.8524
259.277	92.1351	259.277	91.3447	259.277	89.7714	259.277	90.7818
268.066	92.0029	268.066	91.0858	268.066	89.4025	268.066	90.5115
276.855	91.7622	276.855	90.9471	276.855	89.3943	276.855	90.3993
287.109	91.7865	287.109	91.1428	287.109	89.3352	287.109	90.444
297.363	91.9482	297.363	91.2053	297.363	89.6103	297.363	90.6207
307.617	91.8387	307.617	91.1425	307.617	89.4299	307.617	90.4967
319.336	91.8159	319.336	90.8639	319.336	89.2087	319.336	90.3107
329.59	91.4679	329.59	90.5936	329.59	88.8182	329.59	89.9701
341.309	91.7969	341.309	90.3639	341.309	88.8078	341.309	89.9879
353.027	91.7177	353.027	90.5679	353.027	88.0395	353.027	89.7378
366.211	92.012	366.211	90.6505	366.211	87.8815	366.211	89.8034
379.395	92.0627	379.395	90.751	379.395	88.4493	379.395	90.0526
392.578	92.0571	392.578	90.7045	392.578	88.2164	392.578	89.9519
405.762	92.3024	405.762	90.672	405.762	88.3375	405.762	90.0628
420.41	92.425	420.41	91.1461	420.41	88.0913	420.41	90.177
435.059	92.2166	435.059	90.8396	435.059	88.1012	435.059	90.0079
451.172	92.6036	451.172	91.4272	451.172	87.8174	451.172	90.2501
465.82	92.321	465.82	91.507	465.82	87.9666	465.82	90.2337
483.398	92.0857	483.398	91.3008	483.398	87.9742	483.398	90.0865
499.512	92.3084	499.512	90.9266	499.512	87.9639	499.512	90.0214
517.09	92.226	517.09	90.7997	517.09	88.1613	517.09	90.0182
536.133	92.8562	536.133	90.7176	536.133	87.4551	536.133	89.9859
555.176	93.3447	555.176	91.2297	555.176	86.3261	555.176	90.0655
574.219	92.8976	574.219	91.2665	574.219	85.7568	574.219	89.7746
594.727	92.7621	594.727	90.7619	594.727	86.0644	594.727	89.598
615.234	93.0707	615.234	91.6181	615.234	86.0164	615.234	90.0365
637.207	92.5019	637.207	91.0938	637.207	86.1934	637.207	89.6517
659.18	91.3853	659.18	90.1387	659.18	85.5041	659.18	88.7025
682.617	91.8727	682.617	90.9157	682.617	86.2362	682.617	89.3657
707.52	93.8165	707.52	92.2222	707.52	88.4945	707.52	91.1552
732.422	94.2196	732.422	91.9908	732.422	88.6218	732.422	91.2624
757.324	94.2215	757.324	91.5349	757.324	88.0125	757.324	90.9464
785.156	93.5152	785.156	90.7713	785.156	86.8237	785.156	90.097
811.523	94.2411	811.523	91.4734	811.523	87.9963	811.523	90.9307
840.82	94.3438	840.82	90.7566	840.82	87.3427	840.82	90.5901
870.117	93.9024	870.117	90.5646	870.117	87.1469	870.117	90.2838
900.879	93.6009	900.879	90.4893	900.879	87.3701	900.879	90.189
933.105	93.7733	933.105	91.0661	933.105	87.4625	933.105	90.4645
965.332	93.5206	965.332	90.9828	965.332	86.0242	965.332	89.9869
1,000.49	92.3706	1,000.49	90.0404	1,000.49	85.19	1,000.49	88.9782
1,035.64	91.4289	1,035.64	88.4904	1,035.64	83.2864	1,035.64	87.626
1,072.27	92.1369	1,072.27	88.8041	1,072.27	85.1139	1,072.27	88.4528
1,108.89	93.6672	1,108.89	89.4755	1,108.89	85.4888	1,108.89	89.4712
1,148.44	93.6155	1,148.44	89.0835	1,148.44	83.0769	1,148.44	88.9162
1,189.45	93.2038	1,189.45	89.5478	1,189.45	82.3392	1,189.45	88.7353
1,230.47	93.7775	1,230.47	90.1987	1,230.47	83.4572	1,230.47	89.4042
1,274.41	94.2541	1,274.41	90.2956	1,274.41	83.0373	1,274.41	89.6445
1,319.82	94.4667	1,319.82	90.5034	1,319.82	82.9467	1,319.82	89.8217
1,366.7	94.3885	1,366.7	90.0429	1,366.7	83.3189	1,366.7	89.6754
1,413.57	94.1668	1,413.57	90.2601	1,413.57	83.0662	1,413.57	89.5875
1,463.38	93.858	1,463.38	89.5958	1,463.38	82.1987	1,463.38	89.1029
1,516.11	93.0656	1,516.11	88.7382	1,516.11	80.8915	1,516.11	88.2374
1,568.85	92.658	1,568.85	88.0495	1,568.85	80.8512	1,568.85	87.782
1,624.51	93.6804	1,624.51	88.3459	1,624.51	79.7347	1,624.51	88.4087
1,681.64	93.8882	1,681.64	89.5384	1,681.64	80.4009	1,681.64	88.9413
1,741.7	93.9488	1,741.7	89.2468	1,741.7	81.1978	1,741.7	88.953
1,803.22	93.0253	1,803.22	87.785	1,803.22	79.6212	1,803.22	87.8204
1,866.21	93.0619	1,866.21	87.1325	1,866.21	81.2067	1,866.21	87.8301
1,932.13	92.5326	1,932.13	86.5459	1,932.13	79.403	1,932.13	87.1582
1,999.51	93.2306	1,999.51	87.5927	1,999.51	78.5046	1,999.51	87.8255
2,069.82	93.3803	2,069.82	88.3475	2,069.82	79.6897	2,069.82	88.2117
2,143.07	92.6729	2,143.07	88.1093	2,143.07	79.7691	2,143.07	87.7056
2,219.24	91.8881	2,219.24	87.8337	2,219.24	80.0643	2,219.24	87.1815
2,296.88	92.0732	2,296.88	87.1765	2,296.88	78.9037	2,296.88	86.9846
2,378.91	92.8969	2,378.91	88.1854	2,378.91	79.5523	2,378.91	87.8489
2,462.4	94.0991	2,462.4	89.0085	2,462.4	79.6081	2,462.4	88.8592
2,548.83	93.8769	2,548.83	88.917	2,548.83	79.3553	2,548.83	88.6732
2,639.65	92.7727	2,639.65	88.4124	2,639.65	78.6383	2,639.65	87.7777
2,731.93	92.625	2,731.93	88.5001	2,731.93	78.6103	2,731.93	87.7148
2,828.61	93.5352	2,828.61	88.9675	2,828.61	78.9479	2,828.61	88.4465
2,928.22	93.9734	2,928.22	89.0381	2,928.22	78.781	2,928.22	88.7384
3,030.76	93.6583	3,030.76	88.4678	3,030.76	77.1822	3,030.76	88.2882
3,137.7	92.4962	3,137.7	87.2334	3,137.7	76.067	3,137.7	87.1072
3,249.02	91.701	3,249.02	86.7798	3,249.02	75.7335	3,249.02	86.4322
3,363.28	91.9527	3,363.28	86.8122	3,363.28	75.5011	3,363.28	86.5982
3,481.93	92.4713	3,481.93	87.7911	3,481.93	76.2178	3,481.93	87.2642
3,604.98	93.2645	3,604.98	88.5743	3,604.98	77.1706	3,604.98	88.061
3,732.42	93.8222	3,732.42	89.0387	3,732.42	77.643	3,732.42	88.5862
3,864.26	93.1678	3,864.26	88.5668	3,864.26	77.3521	3,864.26	88.0047
4,000.49	93.6854	4,000.49	89.4661	4,000.49	77.9646	4,000.49	88.6508
4,141.11	93.9357	4,141.11	90.301	4,141.11	78.1168	4,141.11	89.1018
4,287.6	92.7782	4,287.6	88.868	4,287.6	77.271	4,287.6	87.8593
4,438.48	92.5798	4,438.48	88.1645	4,438.48	76.2751	4,438.48	87.4555
4,595.21	91.8888	4,595.21	87.9656	4,595.21	76.117	4,595.21	86.9535
4,756.35	92.8482	4,756.35	88.579	4,756.35	76.5331	4,756.35	87.7718
4,924.8	94.4753	4,924.8	89.752	4,924.8	77.9262	4,924.8	89.2429
5,097.66	95.3567	5,097.66	90.0891	5,097.66	77.3346	5,097.66	89.9106
5,277.83	95.4046	5,277.83	90.6944	5,277.83	78.0412	5,277.83	90.1472
5,463.87	95.4279	5,463.87	89.8232	5,463.87	78.2109	5,463.87	89.9132
5,657.23	95.7102	5,657.23	90.2952	5,657.23	77.7698	5,657.23	90.2244
5,856.45	95.36	5,856.45	90.1506	5,856.45	78.1115	5,856.45	89.9554
6,062.99	95.6199	6,062.99	90.3825	6,062.99	78.3739	6,062.99	90.2072
6,276.86	95.3453	6,276.86	89.7628	6,276.86	77.9581	6,276.86	89.8307
6,498.05	95.6638	6,498.05	90.5396	6,498.05	78.2719	6,498.05	90.2793
6,726.56	95.2374	6,726.56	89.9265	6,726.56	77.8134	6,726.56	89.7975
6,963.87	94.8176	6,963.87	89.3818	6,963.87	75.8885	6,963.87	89.2993
7,209.96	94.9419	7,209.96	89.4994	7,209.96	75.7872	7,209.96	89.4164
7,464.84	94.5823	7,464.84	89.0302	7,464.84	75.1869	7,464.84	89.0206
7,727.05	95.2677	7,727.05	89.6336	7,727.05	75.3495	7,727.05	89.6726
7,999.51	94.7097	7,999.51	88.9908	7,999.51	75.4465	7,999.51	89.1052
8,282.23	94.8984	8,282.23	89.2058	8,282.23	74.9792	8,282.23	89.2872
8,573.73	94.8552	8,573.73	89.0054	8,573.73	74.1646	8,573.73	89.1877
8,876.95	95.319	8,876.95	89.0825	8,876.95	73.9145	8,876.95	89.5406
9,188.96	95.1151	9,188.96	88.8194	9,188.96	73.9633	9,188.96	89.3258
9,514.16	95.1462	9,514.16	88.6158	9,514.16	73.4739	9,514.16	89.2924
9,849.61	94.6101	9,849.61	87.8022	9,849.61	72.3017	9,849.61	88.6836
10,196.8	94.7026	10,196.8	87.1817	10,196.8	71.8767	10,196.8	88.6182
10,555.7	94.1656	10,555.7	87.0962	10,555.7	71.3709	10,555.7	88.1755
10,927.7	94.3836	10,927.7	87.0461	10,927.7	71.1422	10,927.7	88.3321
11,313	95.0649	11,313	87.2588	11,313	71.0683	11,313	88.9135
11,712.9	94.9238	11,712.9	86.4228	11,712.9	70.1165	11,712.9	88.6422
12,126	94.7218	12,126	86.0379	12,126	69.5614	12,126	88.4077
12,553.7	94.3564	12,553.7	85.4457	12,553.7	68.456	12,553.7	88.0018
12,996.1	94.416	12,996.1	85.5685	12,996.1	68.6004	12,996.1	88.0718
13,454.6	94.2317	13,454.6	85.1454	13,454.6	67.714	13,454.6	87.8471
13,929.2	94.7735	13,929.2	84.6658	13,929.2	67.754	13,929.2	88.2486
14,419.9	94.368	14,419.9	84.5094	14,419.9	67.9521	14,419.9	87.8772
14,928.2	94.0381	14,928.2	83.9978	14,928.2	66.9327	14,928.2	87.521
15,455.6	93.8847	15,455.6	83.7634	15,455.6	67.0401	15,455.6	87.359
16,000.5	92.8853	16,000.5	82.6501	16,000.5	65.5921	16,000.5	86.3438
16,564.5	92.1804	16,564.5	82.2648	16,564.5	65.2852	16,564.5	85.6799
17,148.9	92.1851	17,148.9	81.8771	17,148.9	63.3457	17,148.9	85.6293
17,752.4	92.2431	17,752.4	80.3501	17,752.4	61.2191	17,752.4	85.5233
18,379.4	92.609	18,379.4	79.9479	18,379.4	60.6421	18,379.4	85.8277
19,026.9	92.3838	19,026.9	78.592	19,026.9	59.0379	19,026.9	85.5286
19,697.8	91.4425	19,697.8	75.7632	19,697.8	56.2222	19,697.8	84.4985
19,999.5	91.2262	19,999.5	74.4504	19,999.5	58.7529	19,999.5	84.2491
