"Horizontal Reflections"							
"Front"		"Side"		"Rear"		"Total Horizontal Reflection"	
"Frequency [Hz]"	"Sound Pessure Level [dB]  / [2.83V 1m] "	"Frequency [Hz]"	"Sound Pessure Level [dB]  / [2.83V 1m] "	"Frequency [Hz]"	"Sound Pessure Level [dB]  / [2.83V 1m] "	"Frequency [Hz]"	"Sound Pessure Level [dB]  / [2.83V 1m] "
20.5078	50.208	20.5078	49.1019	20.5078	55.8853	20.5078	53.9379
21.9727	51.9287	21.9727	51.1174	21.9727	58.0057	21.9727	56.0172
23.4375	54.1522	23.4375	54.2318	23.4375	60.2512	23.4375	58.3466
24.9023	56.2986	24.9023	56.2	24.9023	61.338	24.9023	59.6233
26.3672	57.9766	26.3672	58.2299	26.3672	62.9477	26.3672	61.2946
27.832	60.307	27.832	60.503	27.832	64.3385	27.832	62.9087
29.2969	62.1008	29.2969	62.3424	29.2969	65.7776	29.2969	64.453
30.7617	63.7073	30.7617	63.9367	30.7617	67.0565	30.7617	65.8252
32.2266	65.22	32.2266	65.5062	32.2266	68.32	32.2266	67.1755
33.6914	66.8737	33.6914	67.1288	33.6914	69.5965	33.6914	68.5674
35.1562	68.2983	35.1562	68.5819	35.1562	70.8461	35.1562	69.8816
36.6211	69.5052	36.6211	69.7794	36.6211	71.8499	36.6211	70.9538
38.0859	70.7884	38.0859	71.0595	38.0859	72.9433	38.0859	72.1141
39.5508	71.8979	39.5508	72.1982	39.5508	73.9912	39.5508	73.1908
41.0156	73.3151	41.0156	73.5854	41.0156	75.1156	41.0156	74.4175
42.4805	74.1345	42.4805	74.4088	42.4805	75.8368	42.4805	75.1773
43.9453	75.0781	43.9453	75.345	43.9453	76.6858	43.9453	76.0613
45.4102	75.9114	45.4102	76.1777	45.4102	77.4313	45.4102	76.8411
46.875	76.6341	46.875	76.8955	46.875	78.0582	46.875	77.505
48.3398	77.2847	48.3398	77.541	48.3398	78.6096	48.3398	78.0952
51.2695	78.3017	51.2695	78.5507	51.2695	79.472	51.2695	79.0191
52.7344	78.6907	52.7344	78.9415	52.7344	79.8119	52.7344	79.3799
54.1992	79.0819	54.1992	79.3281	54.1992	80.1313	54.1992	79.7282
55.6641	79.3542	55.6641	79.5973	55.6641	80.3438	55.6641	79.9652
58.5938	79.8377	58.5938	80.0619	58.5938	80.6835	58.5938	80.3616
60.0586	79.9437	60.0586	80.1664	60.0586	80.7515	60.0586	80.4456
62.9883	80.4683	62.9883	80.6709	62.9883	81.142	62.9883	80.8895
64.4531	80.6856	64.4531	80.8686	64.4531	81.2689	64.4531	81.0512
67.3828	80.9313	67.3828	81.0891	67.3828	81.399	67.3828	81.2263
68.8477	80.9353	68.8477	81.0988	68.8477	81.4001	68.8477	81.2303
71.7773	81.0496	71.7773	81.2162	71.7773	81.4916	71.7773	81.3329
74.707	81.4857	74.707	81.6574	74.707	81.8926	74.707	81.7512
77.6367	81.7326	77.6367	81.8864	77.6367	82.0371	77.6367	81.9376
79.1016	81.7666	79.1016	81.9081	79.1016	82.0168	79.1016	81.939
82.0312	82.0043	82.0312	82.1108	82.0312	82.1311	82.0312	82.1011
84.9609	82.2179	84.9609	82.3311	84.9609	82.3536	84.9609	82.3213
87.8906	81.8735	87.8906	82.0976	87.8906	82.4018	87.8906	82.2197
90.8203	82.2342	90.8203	82.3781	90.8203	82.4417	90.8203	82.3844
95.2148	82.5532	95.2148	82.6162	95.2148	82.4979	95.2148	82.5418
98.1445	82.7107	98.1445	82.7345	98.1445	82.5511	98.1445	82.634
101.074	82.6854	101.074	82.7738	101.074	82.6836	101.074	82.7092
105.469	82.7737	105.469	82.9577	105.469	83.0294	105.469	82.9608
108.398	83.0586	108.398	83.0801	108.398	82.9294	108.398	82.997
112.793	83.0848	112.793	83.119	112.793	82.9414	112.793	83.0194
117.188	83.1684	117.188	83.1538	117.188	82.9376	117.188	83.044
120.117	83.4132	120.117	83.3187	120.117	82.843	120.117	83.0938
124.512	83.3997	124.512	83.2793	124.512	82.7239	124.512	83.0203
128.906	83.2658	128.906	83.2134	128.906	82.6738	128.906	82.9479
133.301	83.165	133.301	83.135	133.301	82.7475	133.301	82.9409
139.16	83.2429	139.16	83.1912	139.16	82.754	139.16	82.9766
143.555	83.2684	143.555	83.1477	143.555	82.6823	143.555	82.9334
147.949	83.3339	147.949	83.1337	147.949	82.472	147.949	82.8399
153.809	82.9495	153.809	82.8598	153.809	82.4571	153.809	82.6704
159.668	82.9394	159.668	82.8806	159.668	82.5397	159.668	82.716
165.527	83.0193	165.527	82.9189	165.527	82.5424	165.527	82.7449
171.387	82.9221	171.387	82.7805	171.387	82.4286	171.387	82.6274
177.246	83.0132	177.246	82.7731	177.246	82.3873	177.246	82.6237
183.105	83.1008	183.105	82.7953	183.105	81.9545	183.105	82.4392
188.965	82.7473	188.965	82.5498	188.965	81.9452	188.965	82.2832
196.289	82.7268	196.289	82.4168	196.289	81.9613	196.289	82.2478
203.613	82.9286	203.613	82.4799	203.613	81.7263	203.613	82.1977
210.938	82.6916	210.938	82.3245	210.938	81.5497	210.938	82.0136
218.262	82.3356	218.262	82.0648	218.262	81.6201	218.262	81.8927
225.586	82.5878	225.586	82.1627	225.586	81.4948	225.586	81.9159
232.91	82.3468	232.91	81.7971	232.91	81.2402	232.91	81.6321
241.699	82.2899	241.699	81.6086	241.699	80.6682	241.699	81.2947
250.488	82.2888	250.488	81.5197	250.488	80.537	250.488	81.2083
259.277	82.385	259.277	81.547	259.277	80.5287	259.277	81.2369
268.066	82.2686	268.066	81.3331	268.066	80.2407	268.066	81.0149
276.855	82.1555	276.855	81.531	276.855	80.2819	276.855	81.0645
287.109	82.2077	287.109	81.5065	287.109	80.068	287.109	80.9772
297.363	82.5577	297.363	81.3231	297.363	79.7766	297.363	80.8935
307.617	82.5896	307.617	81.5049	307.617	79.7589	307.617	80.952
319.336	82.1297	319.336	81.0242	319.336	79.6106	319.336	80.6134
329.59	81.9514	329.59	81.1861	329.59	79.2024	329.59	80.4493
341.309	82.1279	341.309	80.9607	341.309	79.2511	341.309	80.4459
353.027	82.128	353.027	80.9421	353.027	78.6676	353.027	80.2152
366.211	82.0508	366.211	80.9399	366.211	78.8694	366.211	80.2674
379.395	82.111	379.395	81.1164	379.395	78.9361	379.395	80.3681
392.578	81.7028	392.578	80.8252	392.578	78.4368	392.578	79.9648
405.762	81.1562	405.762	80.0456	405.762	78.9987	405.762	79.7935
420.41	81.9443	420.41	79.9494	420.41	79.8347	420.41	80.3618
435.059	83.7784	435.059	81.1093	435.059	80.6701	435.059	81.5793
451.172	83.7499	451.172	81.676	451.172	79.114	451.172	81.1396
465.82	83.6681	465.82	81.8414	465.82	79.1705	465.82	81.1825
483.398	83.3929	483.398	81.8231	483.398	78.5456	483.398	80.8812
499.512	83.6906	499.512	81.866	499.512	78.9541	499.512	81.1278
517.09	83.1558	517.09	81.7646	517.09	78.4085	517.09	80.7372
536.133	83.387	536.133	81.5266	536.133	77.8312	536.133	80.5661
555.176	83.4497	555.176	82.2495	555.176	77.4064	555.176	80.7447
574.219	83.2856	574.219	81.8079	574.219	77.5316	574.219	80.548
594.727	82.9018	594.727	81.5381	594.727	77.4351	594.727	80.2837
615.234	82.5349	615.234	81.2889	615.234	76.6695	615.234	79.8563
637.207	82.184	637.207	80.962	637.207	76.4813	637.207	79.5564
659.18	81.9156	659.18	80.5135	659.18	76.259	659.18	79.232
682.617	81.8312	682.617	80.6057	682.617	75.7342	682.617	79.1031
707.52	80.8421	707.52	80.885	707.52	76.6422	707.52	79.1393
732.422	80.9169	732.422	80.4526	732.422	77.139	732.422	79.1464
757.324	81.8849	757.324	81.0493	757.324	77.2504	757.324	79.7036
785.156	82.7514	785.156	81.4011	785.156	77.7288	785.156	80.2644
811.523	83.6546	811.523	81.6594	811.523	78.8808	811.523	81.0244
840.82	84.5799	840.82	81.2819	840.82	78.1565	840.82	81.0604
870.117	85.06	870.117	81.8051	870.117	78.122	870.117	81.4203
900.879	85.4753	900.879	81.8145	900.879	78.115	900.879	81.613
933.105	85.6153	933.105	81.2512	933.105	77.7593	933.105	81.4428
965.332	85.5742	965.332	81.1631	965.332	77.0805	965.332	81.2527
1,000.49	85.4081	1,000.49	80.9563	1,000.49	76.2422	1,000.49	80.9476
1,035.64	85.1814	1,035.64	80.8365	1,035.64	75.5661	1,035.64	80.6746
1,072.27	84.8418	1,072.27	80.5823	1,072.27	75.2848	1,072.27	80.3692
1,108.89	84.5622	1,108.89	80.7263	1,108.89	75.7116	1,108.89	80.3378
1,148.44	84.4518	1,148.44	80.2217	1,148.44	75.3371	1,148.44	80.0632
1,189.45	83.9743	1,189.45	80.1696	1,189.45	73.8437	1,189.45	79.5533
1,230.47	84.2543	1,230.47	80.2815	1,230.47	72.8744	1,230.47	79.6216
1,274.41	84.3997	1,274.41	80.5414	1,274.41	73.0222	1,274.41	79.8046
1,319.82	84.9612	1,319.82	80.9832	1,319.82	73.5065	1,319.82	80.3185
1,366.7	85.3178	1,366.7	81.3876	1,366.7	73.9079	1,366.7	80.6956
1,413.57	85.3718	1,413.57	80.6554	1,413.57	71.8308	1,413.57	80.3073
1,463.38	84.388	1,463.38	79.8951	1,463.38	71.3885	1,463.38	79.4344
1,516.11	83.4011	1,516.11	78.9827	1,516.11	69.2549	1,516.11	78.3868
1,568.85	83.3032	1,568.85	77.3996	1,568.85	67.3126	1,568.85	77.7604
1,624.51	82.8234	1,624.51	76.7021	1,624.51	66.2285	1,624.51	77.1987
1,681.64	82.8084	1,681.64	76.8287	1,681.64	66.1457	1,681.64	77.2163
1,741.7	81.9968	1,741.7	75.587	1,741.7	65.9475	1,741.7	76.3272
1,803.22	81.0039	1,803.22	74.3862	1,803.22	64.35	1,803.22	75.2588
1,866.21	80.4111	1,866.21	73.4706	1,866.21	65.229	1,866.21	74.6703
1,932.13	80.9606	1,932.13	73.9869	1,932.13	64.2505	1,932.13	75.1347
1,999.51	81.3782	1,999.51	74.5033	1,999.51	63.1104	1,999.51	75.5171
2,069.82	81.545	2,069.82	74.3269	2,069.82	63.2765	2,069.82	75.6107
2,143.07	80.6355	2,143.07	73.8429	2,143.07	63.11	2,143.07	74.817
2,219.24	78.8089	2,219.24	72.0545	2,219.24	63.8805	2,219.24	73.1235
2,296.88	78.4241	2,296.88	72.4619	2,296.88	66.5154	2,296.88	73.1785
2,378.91	78.6086	2,378.91	74.2267	2,378.91	68.0514	2,378.91	73.9507
2,462.4	79.6792	2,462.4	76.1396	2,462.4	69.3667	2,462.4	75.3201
2,548.83	79.5424	2,548.83	76.7793	2,548.83	69.882	2,548.83	75.5471
2,639.65	78.9997	2,639.65	76.2299	2,639.65	69.1919	2,639.65	74.9811
2,731.93	79.1814	2,731.93	76.2632	2,731.93	68.6412	2,731.93	75.0124
2,828.61	80.5467	2,828.61	77.8044	2,828.61	68.6451	2,828.61	76.3013
2,928.22	81.6101	2,928.22	78.9897	2,928.22	69.5117	2,928.22	77.3957
3,030.76	82.1416	3,030.76	79.5666	3,030.76	69.9882	3,030.76	77.9408
3,137.7	82.1626	3,137.7	79.6419	3,137.7	70.2393	3,137.7	78.0037
3,249.02	82.3306	3,249.02	79.4046	3,249.02	70.1275	3,249.02	77.9871
3,363.28	82.6865	3,363.28	79.1006	3,363.28	69.082	3,363.28	77.9899
3,481.93	82.3835	3,481.93	79.4915	3,481.93	69.8069	3,481.93	78.0222
3,604.98	83.3587	3,604.98	80.3983	3,604.98	70.1757	3,604.98	78.9253
3,732.42	84.4196	3,732.42	81.1612	3,732.42	70.2711	3,732.42	79.8094
3,864.26	83.6192	3,864.26	80.4125	3,864.26	70.2229	3,864.26	79.0764
4,000.49	84.2407	4,000.49	80.5937	4,000.49	70.8445	4,000.49	79.5368
4,141.11	84.9546	4,141.11	81.1673	4,141.11	71.2698	4,141.11	80.1813
4,287.6	84.7857	4,287.6	81.2805	4,287.6	71.7963	4,287.6	80.1625
4,438.48	84.9998	4,438.48	81.3357	4,438.48	71.0054	4,438.48	80.2497
4,595.21	83.8415	4,595.21	80.5406	4,595.21	71.1797	4,595.21	79.3185
4,756.35	83.9186	4,756.35	81.4673	4,756.35	71.7738	4,756.35	79.769
4,924.8	84.2839	4,924.8	82.0865	4,924.8	72.1255	4,924.8	80.2392
5,097.66	84.2336	5,097.66	82.119	5,097.66	72.1237	5,097.66	80.2282
5,277.83	85.1287	5,277.83	82.7506	5,277.83	72.099	5,277.83	80.9421
5,463.87	86.626	5,463.87	82.2215	5,463.87	72.0742	5,463.87	81.5911
5,657.23	86.2519	5,657.23	82.03	5,657.23	70.9165	5,657.23	81.2346
5,856.45	85.6268	5,856.45	81.6792	5,856.45	69.339	5,856.45	80.6617
6,062.99	85.4494	6,062.99	81.8118	6,062.99	69.2248	6,062.99	80.5981
6,276.86	84.8821	6,276.86	81.3536	6,276.86	69.0697	6,276.86	80.0877
6,498.05	84.8187	6,498.05	81.4842	6,498.05	69.2616	6,498.05	80.1082
6,726.56	84.9851	6,726.56	81.2334	6,726.56	69.0892	6,726.56	80.1055
6,963.87	84.6984	6,963.87	80.6669	6,963.87	68.4971	6,963.87	79.7074
7,209.96	85.2743	7,209.96	80.9861	7,209.96	69.0125	7,209.96	80.1937
7,464.84	85.1449	7,464.84	80.6821	7,464.84	67.8097	7,464.84	79.9679
7,727.05	85.958	7,727.05	80.6609	7,727.05	67.9128	7,727.05	80.5027
7,999.51	85.512	7,999.51	80.6768	7,999.51	68.1215	7,999.51	80.2148
8,282.23	85.0431	8,282.23	80.3294	8,282.23	67.871	8,282.23	79.791
8,573.73	84.9957	8,573.73	80.147	8,573.73	67.1047	8,573.73	79.6788
8,876.95	85.2342	8,876.95	79.7209	8,876.95	67.0349	8,876.95	79.7133
9,188.96	85.4368	9,188.96	79.784	9,188.96	66.5465	9,188.96	79.8591
9,514.16	85.9432	9,514.16	80.0299	9,514.16	65.7378	9,514.16	80.2675
9,849.61	86.3843	9,849.61	79.7705	9,849.61	65.6412	9,849.61	80.5252
10,196.8	86.8309	10,196.8	79.6903	10,196.8	65.3403	10,196.8	80.8423
10,555.7	87.097	10,555.7	79.5316	10,555.7	65.0366	10,555.7	81.0132
10,927.7	87.3311	10,927.7	79.2517	10,927.7	64.9138	10,927.7	81.1458
11,313	87.2112	11,313	78.7291	11,313	64.8301	11,313	80.9567
11,712.9	87.004	11,712.9	78.5309	11,712.9	64.5113	11,712.9	80.7496
12,126	86.9457	12,126	78.2463	12,126	64.0443	12,126	80.6495
12,553.7	86.7291	12,553.7	77.7749	12,553.7	64.0301	12,553.7	80.3955
12,996.1	86.5615	12,996.1	77.4483	12,996.1	64.9316	12,996.1	80.219
13,454.6	86.3514	13,454.6	77.6277	13,454.6	64.9025	13,454.6	80.0711
13,929.2	86.1552	13,929.2	77.4784	13,929.2	64.2104	13,929.2	79.8749
14,419.9	85.8383	14,419.9	77.1735	14,419.9	64.003	14,419.9	79.5615
14,928.2	85.4354	14,928.2	77.3035	14,928.2	63.9716	14,928.2	79.2541
15,455.6	84.9454	15,455.6	77.1045	15,455.6	63.0997	15,455.6	78.8115
16,000.5	84.339	16,000.5	76.7908	16,000.5	61.8759	16,000.5	78.2534
16,564.5	83.8386	16,564.5	76.3347	16,564.5	61.0948	16,564.5	77.7586
17,148.9	83.4126	17,148.9	75.7002	17,148.9	60.4619	17,148.9	77.2893
17,752.4	83.2502	17,752.4	75.0215	17,752.4	58.9885	17,752.4	77.0194
18,379.4	83.045	18,379.4	74.5811	18,379.4	57.4869	18,379.4	76.7645
19,026.9	82.8066	19,026.9	74.1067	19,026.9	56.1573	19,026.9	76.4813
19,697.8	82.2528	19,697.8	73.2791	19,697.8	54.1788	19,697.8	75.8786
19,999.5	81.9918	19,999.5	72.9951	19,999.5	55.0019	19,999.5	75.6184
