"SPL Horizontal"																																																																							
"On-Axis"		"10°"		"-10°"		"20°"		"-20°"		"30°"		"-30°"		"40°"		"-40°"		"50°"		"-50°"		"60°"		"-60°"		"70°"		"-70°"		"80°"		"-80°"		"90°"		"-90°"		"100°"		"-100°"		"110°"		"-110°"		"120°"		"-120°"		"130°"		"-130°"		"140°"		"-140°"		"150°"		"-150°"		"160°"		"-160°"		"170°"		"-170°"		"180°"	
"Frequency [Hz]"	"Sound Pessure Level [dB]  / [2.83V 1m] "	"Frequency [Hz]"	"Sound Pessure Level [dB]  / [2.83V 1m] "	"Frequency [Hz]"	"Sound Pessure Level [dB]  / [2.83V 1m] "	"Frequency [Hz]"	"Sound Pessure Level [dB]  / [2.83V 1m] "	"Frequency [Hz]"	"Sound Pessure Level [dB]  / [2.83V 1m] "	"Frequency [Hz]"	"Sound Pessure Level [dB]  / [2.83V 1m] "	"Frequency [Hz]"	"Sound Pessure Level [dB]  / [2.83V 1m] "	"Frequency [Hz]"	"Sound Pessure Level [dB]  / [2.83V 1m] "	"Frequency [Hz]"	"Sound Pessure Level [dB]  / [2.83V 1m] "	"Frequency [Hz]"	"Sound Pessure Level [dB]  / [2.83V 1m] "	"Frequency [Hz]"	"Sound Pessure Level [dB]  / [2.83V 1m] "	"Frequency [Hz]"	"Sound Pessure Level [dB]  / [2.83V 1m] "	"Frequency [Hz]"	"Sound Pessure Level [dB]  / [2.83V 1m] "	"Frequency [Hz]"	"Sound Pessure Level [dB]  / [2.83V 1m] "	"Frequency [Hz]"	"Sound Pessure Level [dB]  / [2.83V 1m] "	"Frequency [Hz]"	"Sound Pessure Level [dB]  / [2.83V 1m] "	"Frequency [Hz]"	"Sound Pessure Level [dB]  / [2.83V 1m] "	"Frequency [Hz]"	"Sound Pessure Level [dB]  / [2.83V 1m] "	"Frequency [Hz]"	"Sound Pessure Level [dB]  / [2.83V 1m] "	"Frequency [Hz]"	"Sound Pessure Level [dB]  / [2.83V 1m] "	"Frequency [Hz]"	"Sound Pessure Level [dB]  / [2.83V 1m] "	"Frequency [Hz]"	"Sound Pessure Level [dB]  / [2.83V 1m] "	"Frequency [Hz]"	"Sound Pessure Level [dB]  / [2.83V 1m] "	"Frequency [Hz]"	"Sound Pessure Level [dB]  / [2.83V 1m] "	"Frequency [Hz]"	"Sound Pessure Level [dB]  / [2.83V 1m] "	"Frequency [Hz]"	"Sound Pessure Level [dB]  / [2.83V 1m] "	"Frequency [Hz]"	"Sound Pessure Level [dB]  / [2.83V 1m] "	"Frequency [Hz]"	"Sound Pessure Level [dB]  / [2.83V 1m] "	"Frequency [Hz]"	"Sound Pessure Level [dB]  / [2.83V 1m] "	"Frequency [Hz]"	"Sound Pessure Level [dB]  / [2.83V 1m] "	"Frequency [Hz]"	"Sound Pessure Level [dB]  / [2.83V 1m] "	"Frequency [Hz]"	"Sound Pessure Level [dB]  / [2.83V 1m] "	"Frequency [Hz]"	"Sound Pessure Level [dB]  / [2.83V 1m] "	"Frequency [Hz]"	"Sound Pessure Level [dB]  / [2.83V 1m] "	"Frequency [Hz]"	"Sound Pessure Level [dB]  / [2.83V 1m] "	"Frequency [Hz]"	"Sound Pessure Level [dB]  / [2.83V 1m] "
20.5078	54.7856	20.5078	54.5789	20.5078	55.016	20.5078	54.4087	20.5078	55.2515	20.5078	54.2823	20.5078	55.4676	20.5078	54.2031	20.5078	55.6379	20.5078	54.1714	20.5078	55.7392	20.5078	54.1843	20.5078	55.7592	20.5078	54.2363	20.5078	55.7017	20.5078	54.3189	20.5078	55.587	20.5078	54.4214	20.5078	55.4469	20.5078	54.5316	20.5078	55.3133	20.5078	54.6381	20.5078	55.2089	20.5078	54.7319	20.5078	55.1411	20.5078	54.8083	20.5078	55.1047	20.5078	54.8678	20.5078	55.0877	20.5078	54.9145	20.5078	55.0778	20.5078	54.9538	20.5078	55.0659	20.5078	54.9892	20.5078	55.0471	20.5078	55.0209
21.9727	54.5606	21.9727	54.4665	21.9727	54.6622	21.9727	54.3864	21.9727	54.7622	21.9727	54.3248	21.9727	54.848	21.9727	54.2853	21.9727	54.9055	21.9727	54.2708	21.9727	54.9214	21.9727	54.2832	21.9727	54.8888	21.9727	54.3234	21.9727	54.8103	21.9727	54.3899	21.9727	54.7001	21.9727	54.4792	21.9727	54.5814	21.9727	54.5847	21.9727	54.4805	21.9727	54.6973	21.9727	54.4193	21.9727	54.8062	21.9727	54.4098	21.9727	54.9009	21.9727	54.4516	21.9727	54.9722	21.9727	54.5344	21.9727	55.0143	21.9727	54.6416	21.9727	55.0239	21.9727	54.7555	21.9727	55.0001	21.9727	54.8604	21.9727	54.9443
23.4375	55.3135	23.4375	55.1905	23.4375	55.4414	23.4375	55.0776	23.4375	55.5677	23.4375	54.979	23.4375	55.6843	23.4375	54.8987	23.4375	55.783	23.4375	54.8401	23.4375	55.8566	23.4375	54.8064	23.4375	55.9024	23.4375	54.7997	23.4375	55.9241	23.4375	54.8213	23.4375	55.9315	23.4375	54.8708	23.4375	55.9374	23.4375	54.9463	23.4375	55.9527	23.4375	55.0444	23.4375	55.9819	23.4375	55.1602	23.4375	56.0216	23.4375	55.2889	23.4375	56.0625	23.4375	55.4257	23.4375	56.0925	23.4375	55.5656	23.4375	56.1007	23.4375	55.703	23.4375	56.0794	23.4375	55.8308	23.4375	56.0256	23.4375	55.941
24.9023	56.9451	24.9023	56.9077	24.9023	56.9847	24.9023	56.8727	24.9023	57.0255	24.9023	56.8394	24.9023	57.0647	24.9023	56.807	24.9023	57.0985	24.9023	56.7747	24.9023	57.1229	24.9023	56.7423	24.9023	57.1354	24.9023	56.7108	24.9023	57.1365	24.9023	56.6823	24.9023	57.13	24.9023	56.6603	24.9023	57.1222	24.9023	56.6484	24.9023	57.1187	24.9023	56.6502	24.9023	57.1228	24.9023	56.6683	24.9023	57.1335	24.9023	56.7033	24.9023	57.1458	24.9023	56.7535	24.9023	57.1525	24.9023	56.8158	24.9023	57.1464	24.9023	56.8855	24.9023	57.123	24.9023	56.9571	24.9023	57.0814	24.9023	57.0244
26.3672	56.9593	26.3672	56.949	26.3672	56.9619	26.3672	56.9328	26.3672	56.9552	26.3672	56.9116	26.3672	56.9372	26.3672	56.8863	26.3672	56.9066	26.3672	56.8565	26.3672	56.8635	26.3672	56.8216	26.3672	56.8109	26.3672	56.7801	26.3672	56.7553	26.3672	56.7307	26.3672	56.7057	26.3672	56.6728	26.3672	56.6715	26.3672	56.6082	26.3672	56.6587	26.3672	56.5412	26.3672	56.6678	26.3672	56.4789	26.3672	56.6929	26.3672	56.4299	26.3672	56.7223	26.3672	56.4028	26.3672	56.7417	26.3672	56.4042	26.3672	56.7386	26.3672	56.4366	26.3672	56.7061	26.3672	56.4959	26.3672	56.6467	26.3672	56.5712
27.832	60.163	27.832	60.1722	27.832	60.1439	27.832	60.1709	27.832	60.1157	27.832	60.1585	27.832	60.0786	27.832	60.1348	27.832	60.0326	27.832	60.0997	27.832	59.9773	27.832	60.054	27.832	59.9126	27.832	59.9988	27.832	59.8391	27.832	59.9356	27.832	59.7586	27.832	59.8659	27.832	59.6737	27.832	59.7909	27.832	59.5876	27.832	59.7122	27.832	59.5041	27.832	59.6315	27.832	59.4269	27.832	59.5515	27.832	59.36	27.832	59.4754	27.832	59.3072	27.832	59.4067	27.832	59.2712	27.832	59.3483	27.832	59.2533	27.832	59.3022	27.832	59.2533	27.832	59.2701
29.2969	62.0576	29.2969	62.039	29.2969	62.0709	29.2969	62.0161	29.2969	62.078	29.2969	61.99	29.2969	62.0784	29.2969	61.9613	29.2969	62.0718	29.2969	61.9307	29.2969	62.0583	29.2969	61.8985	29.2969	62.038	29.2969	61.8647	29.2969	62.0115	29.2969	61.8292	29.2969	61.9795	29.2969	61.7915	29.2969	61.9428	29.2969	61.7514	29.2969	61.902	29.2969	61.7092	29.2969	61.8574	29.2969	61.6661	29.2969	61.8094	29.2969	61.6246	29.2969	61.7584	29.2969	61.588	29.2969	61.7061	29.2969	61.5596	29.2969	61.6552	29.2969	61.5425	29.2969	61.6097	29.2969	61.5387	29.2969	61.5733	29.2969	61.5491
30.7617	63.4752	30.7617	63.4258	30.7617	63.5156	30.7617	63.3676	30.7617	63.5472	30.7617	63.3019	30.7617	63.571	30.7617	63.2305	30.7617	63.588	30.7617	63.1562	30.7617	63.5995	30.7617	63.0819	30.7617	63.6064	30.7617	63.0116	30.7617	63.6096	30.7617	62.9492	30.7617	63.6092	30.7617	62.8989	30.7617	63.605	30.7617	62.8639	30.7617	63.596	30.7617	62.8463	30.7617	63.5808	30.7617	62.8462	30.7617	63.5569	30.7617	62.8626	30.7617	63.5219	30.7617	62.8943	30.7617	63.4735	30.7617	62.9408	30.7617	63.4104	30.7617	63.0018	30.7617	63.3341	30.7617	63.076	30.7617	63.2486	30.7617	63.1602
32.2266	65.7192	32.2266	65.719	32.2266	65.7099	32.2266	65.7089	32.2266	65.6917	32.2266	65.6892	32.2266	65.6663	32.2266	65.6605	32.2266	65.6354	32.2266	65.6235	32.2266	65.6012	32.2266	65.5796	32.2266	65.5659	32.2266	65.5301	32.2266	65.5313	32.2266	65.477	32.2266	65.4986	32.2266	65.4223	32.2266	65.4688	32.2266	65.3689	32.2266	65.4421	32.2266	65.3193	32.2266	65.4187	32.2266	65.2764	32.2266	65.3978	32.2266	65.2429	32.2266	65.3783	32.2266	65.2209	32.2266	65.3585	32.2266	65.2121	32.2266	65.3364	32.2266	65.2163	32.2266	65.3111	32.2266	65.232	32.2266	65.2834	32.2266	65.2557
33.6914	67.6684	33.6914	67.6671	33.6914	67.6593	33.6914	67.6554	33.6914	67.6405	33.6914	67.6338	33.6914	67.6129	33.6914	67.6033	33.6914	67.5785	33.6914	67.5647	33.6914	67.5388	33.6914	67.519	33.6914	67.4957	33.6914	67.4674	33.6914	67.4504	33.6914	67.4111	33.6914	67.4038	33.6914	67.3517	33.6914	67.3569	33.6914	67.2914	33.6914	67.3105	33.6914	67.2324	33.6914	67.2658	33.6914	67.1774	33.6914	67.2238	33.6914	67.1293	33.6914	67.1852	33.6914	67.0904	33.6914	67.1503	33.6914	67.0627	33.6914	67.1189	33.6914	67.0474	33.6914	67.0913	33.6914	67.0442	33.6914	67.0684	33.6914	67.0519
35.1562	69.4579	35.1562	69.4473	35.1562	69.462	35.1562	69.4298	35.1562	69.4599	35.1562	69.4062	35.1562	69.4529	35.1562	69.3771	35.1562	69.4423	35.1562	69.3438	35.1562	69.4298	35.1562	69.3075	35.1562	69.4164	35.1562	69.2699	35.1562	69.4031	35.1562	69.2324	35.1562	69.3899	35.1562	69.1968	35.1562	69.3765	35.1562	69.1645	35.1562	69.3627	35.1562	69.1374	35.1562	69.3478	35.1562	69.117	35.1562	69.3314	35.1562	69.1049	35.1562	69.3128	35.1562	69.1021	35.1562	69.2914	35.1562	69.1092	35.1562	69.2667	35.1562	69.1255	35.1562	69.2388	35.1562	69.1492	35.1562	69.2086	35.1562	69.1778
36.6211	71.3799	36.6211	71.3768	36.6211	71.3744	36.6211	71.3651	36.6211	71.361	36.6211	71.345	36.6211	71.3408	36.6211	71.3171	36.6211	71.3155	36.6211	71.2825	36.6211	71.2867	36.6211	71.2423	36.6211	71.2561	36.6211	71.198	36.6211	71.2249	36.6211	71.1513	36.6211	71.1942	36.6211	71.1037	36.6211	71.1646	36.6211	71.0571	36.6211	71.1363	36.6211	71.0134	36.6211	71.1093	36.6211	70.9745	36.6211	71.0832	36.6211	70.9426	36.6211	71.0573	36.6211	70.9197	36.6211	71.0311	36.6211	70.9071	36.6211	71.0042	36.6211	70.9054	36.6211	70.9774	36.6211	70.9135	36.6211	70.9519	36.6211	70.9298
38.0859	73.2316	38.0859	73.233	38.0859	73.2216	38.0859	73.2254	38.0859	73.2035	38.0859	73.2089	38.0859	73.1786	38.0859	73.1841	38.0859	73.1481	38.0859	73.1516	38.0859	73.1135	38.0859	73.1126	38.0859	73.076	38.0859	73.0683	38.0859	73.0368	38.0859	73.02	38.0859	72.9965	38.0859	72.9694	38.0859	72.9561	38.0859	72.9183	38.0859	72.9163	38.0859	72.8689	38.0859	72.8779	38.0859	72.8231	38.0859	72.8417	38.0859	72.7831	38.0859	72.8084	38.0859	72.7508	38.0859	72.7786	38.0859	72.7272	38.0859	72.7531	38.0859	72.7127	38.0859	72.7324	38.0859	72.7068	38.0859	72.7174	38.0859	72.7086
39.5508	74.8181	39.5508	74.8179	39.5508	74.8108	39.5508	74.8103	39.5508	74.7963	39.5508	74.7955	39.5508	74.7752	39.5508	74.7742	39.5508	74.7484	39.5508	74.7471	39.5508	74.7172	39.5508	74.7149	39.5508	74.6826	39.5508	74.6785	39.5508	74.6457	39.5508	74.6387	39.5508	74.6075	39.5508	74.5967	39.5508	74.5689	39.5508	74.5537	39.5508	74.531	39.5508	74.5114	39.5508	74.4949	39.5508	74.4714	39.5508	74.4614	39.5508	74.4357	39.5508	74.4312	39.5508	74.406	39.5508	74.405	39.5508	74.383	39.5508	74.3836	39.5508	74.367	39.5508	74.3677	39.5508	74.3577	39.5508	74.358	39.5508	74.3547
41.0156	76.2979	41.0156	76.2822	41.0156	76.3056	41.0156	76.2585	41.0156	76.3055	41.0156	76.2274	41.0156	76.2982	41.0156	76.1891	41.0156	76.2845	41.0156	76.1446	41.0156	76.2656	41.0156	76.0946	41.0156	76.2428	41.0156	76.0402	41.0156	76.2174	41.0156	75.9833	41.0156	76.1908	41.0156	75.9262	41.0156	76.1637	41.0156	75.8723	41.0156	76.1366	41.0156	75.8257	41.0156	76.1096	41.0156	75.7905	41.0156	76.0823	41.0156	75.7701	41.0156	76.0536	41.0156	75.7659	41.0156	76.0226	41.0156	75.7771	41.0156	75.9883	41.0156	75.8008	41.0156	75.9509	41.0156	75.8334	41.0156	75.9113	41.0156	75.8713
42.4805	77.019	42.4805	77.0166	42.4805	77.0119	42.4805	77.0046	42.4805	76.9955	42.4805	76.9836	42.4805	76.9704	42.4805	76.9543	42.4805	76.9377	42.4805	76.9177	42.4805	76.8987	42.4805	76.8754	42.4805	76.855	42.4805	76.829	42.4805	76.8085	42.4805	76.7806	42.4805	76.7611	42.4805	76.7321	42.4805	76.7148	42.4805	76.6859	42.4805	76.6715	42.4805	76.644	42.4805	76.633	42.4805	76.6082	42.4805	76.6005	42.4805	76.5795	42.4805	76.5747	42.4805	76.5581	42.4805	76.5555	42.4805	76.5434	42.4805	76.5423	42.4805	76.5343	42.4805	76.534	42.4805	76.5295	42.4805	76.5294	42.4805	76.528
43.9453	77.8759	43.9453	77.8681	43.9453	77.8742	43.9453	77.851	43.9453	77.863	43.9453	77.8253	43.9453	77.8426	43.9453	77.7921	43.9453	77.8138	43.9453	77.7525	43.9453	77.7777	43.9453	77.7082	43.9453	77.7357	43.9453	77.661	43.9453	77.6895	43.9453	77.6128	43.9453	77.6412	43.9453	77.5653	43.9453	77.5926	43.9453	77.5205	43.9453	77.5459	43.9453	77.4796	43.9453	77.5027	43.9453	77.4439	43.9453	77.4644	43.9453	77.4139	43.9453	77.432	43.9453	77.3899	43.9453	77.4056	43.9453	77.3721	43.9453	77.3851	43.9453	77.3604	43.9453	77.37	43.9453	77.3548	43.9453	77.3599	43.9453	77.3548
45.4102	78.3187	45.4102	78.3095	45.4102	78.3179	45.4102	78.2907	45.4102	78.3068	45.4102	78.2632	45.4102	78.2858	45.4102	78.228	45.4102	78.2555	45.4102	78.1863	45.4102	78.2169	45.4102	78.1397	45.4102	78.1714	45.4102	78.0897	45.4102	78.1208	45.4102	78.0382	45.4102	78.0673	45.4102	77.9869	45.4102	78.0129	45.4102	77.9377	45.4102	77.9602	45.4102	77.8922	45.4102	77.9111	45.4102	77.852	45.4102	77.8675	45.4102	77.8179	45.4102	77.8307	45.4102	77.7903	45.4102	77.8009	45.4102	77.7695	45.4102	77.7781	45.4102	77.7554	45.4102	77.7617	45.4102	77.7478	45.4102	77.7512	45.4102	77.7466
46.875	78.6865	46.875	78.6764	46.875	78.6856	46.875	78.6555	46.875	78.6733	46.875	78.6247	46.875	78.6501	46.875	78.585	46.875	78.6165	46.875	78.5378	46.875	78.5735	46.875	78.4846	46.875	78.5226	46.875	78.4273	46.875	78.4656	46.875	78.3677	46.875	78.4046	46.875	78.3079	46.875	78.3422	46.875	78.2503	46.875	78.2809	46.875	78.1968	46.875	78.2232	46.875	78.1494	46.875	78.1711	46.875	78.1095	46.875	78.1265	46.875	78.0775	46.875	78.0901	46.875	78.0536	46.875	78.0624	46.875	78.0375	46.875	78.0429	46.875	78.0285	46.875	78.0311	46.875	78.0264
48.3398	79.0053	48.3398	78.9929	48.3398	79.0062	48.3398	78.9696	48.3398	78.9955	48.3398	78.9362	48.3398	78.9734	48.3398	78.8937	48.3398	78.9404	48.3398	78.8435	48.3398	78.8975	48.3398	78.7872	48.3398	78.8461	48.3398	78.7267	48.3398	78.7879	48.3398	78.6639	48.3398	78.7251	48.3398	78.6009	48.3398	78.66	48.3398	78.5399	48.3398	78.5953	48.3398	78.4829	48.3398	78.5333	48.3398	78.4318	48.3398	78.476	48.3398	78.3881	48.3398	78.4253	48.3398	78.3525	48.3398	78.3824	48.3398	78.3256	48.3398	78.3479	48.3398	78.3075	48.3398	78.3222	48.3398	78.2981	48.3398	78.3054	48.3398	78.2974
51.2695	79.4299	51.2695	79.4154	51.2695	79.4332	51.2695	79.3903	51.2695	79.4249	51.2695	79.3554	51.2695	79.4052	51.2695	79.312	51.2695	79.3746	51.2695	79.2614	51.2695	79.3338	51.2695	79.2052	51.2695	79.2843	51.2695	79.145	51.2695	79.2279	51.2695	79.0826	51.2695	79.1666	51.2695	79.02	51.2695	79.1029	51.2695	78.9592	51.2695	79.0391	51.2695	78.9023	51.2695	78.9775	51.2695	78.8512	51.2695	78.9201	51.2695	78.8076	51.2695	78.8685	51.2695	78.7726	51.2695	78.8238	51.2695	78.747	51.2695	78.7869	51.2695	78.7308	51.2695	78.7582	51.2695	78.7241	51.2695	78.7381	51.2695	78.7266
52.7344	79.6415	52.7344	79.6298	52.7344	79.6417	52.7344	79.607	52.7344	79.6301	52.7344	79.5742	52.7344	79.6072	52.7344	79.5325	52.7344	79.5736	52.7344	79.4835	52.7344	79.5305	52.7344	79.4289	52.7344	79.4794	52.7344	79.3706	52.7344	79.4224	52.7344	79.3105	52.7344	79.3618	52.7344	79.2508	52.7344	79.3001	52.7344	79.1933	52.7344	79.2396	52.7344	79.1401	52.7344	79.1826	52.7344	79.0927	52.7344	79.1307	52.7344	79.0524	52.7344	79.0852	52.7344	79.0199	52.7344	79.0469	52.7344	78.9955	52.7344	79.0162	52.7344	78.9793	52.7344	78.9933	52.7344	78.9711	52.7344	78.9782	52.7344	78.9708
54.1992	79.8649	54.1992	79.8566	54.1992	79.8611	54.1992	79.8368	54.1992	79.8452	54.1992	79.8062	54.1992	79.8175	54.1992	79.7662	54.1992	79.7787	54.1992	79.7181	54.1992	79.7301	54.1992	79.6638	54.1992	79.6735	54.1992	79.6051	54.1992	79.611	54.1992	79.544	54.1992	79.5453	54.1992	79.4828	54.1992	79.4792	54.1992	79.4236	54.1992	79.4153	54.1992	79.3683	54.1992	79.3563	54.1992	79.3186	54.1992	79.3042	54.1992	79.2756	54.1992	79.2604	54.1992	79.24	54.1992	79.2256	54.1992	79.2121	54.1992	79.2	54.1992	79.1916	54.1992	79.183	54.1992	79.1786	54.1992	79.1741	54.1992	79.1727
55.6641	80.0935	55.6641	80.0809	55.6641	80.094	55.6641	80.0566	55.6641	80.0821	55.6641	80.0218	55.6641	80.058	55.6641	79.9777	55.6641	80.0224	55.6641	79.926	55.6641	79.9765	55.6641	79.8687	55.6641	79.9218	55.6641	79.8076	55.6641	79.8605	55.6641	79.7448	55.6641	79.795	55.6641	79.6823	55.6641	79.7277	55.6641	79.6218	55.6641	79.6613	55.6641	79.5649	55.6641	79.5982	55.6641	79.5129	55.6641	79.5403	55.6641	79.467	55.6641	79.4892	55.6641	79.4282	55.6641	79.4459	55.6641	79.3976	55.6641	79.4112	55.6641	79.3759	55.6641	79.3853	55.6641	79.3638	55.6641	79.3687	55.6641	79.3614
58.5938	80.5304	58.5938	80.5155	58.5938	80.533	58.5938	80.4889	58.5938	80.523	58.5938	80.4517	58.5938	80.5008	58.5938	80.4054	58.5938	80.4669	58.5938	80.3515	58.5938	80.4225	58.5938	80.2921	58.5938	80.3695	58.5938	80.2294	58.5938	80.3099	58.5938	80.1657	58.5938	80.2463	58.5938	80.1032	58.5938	80.1813	58.5938	80.0441	58.5938	80.1175	58.5938	79.9902	58.5938	80.0572	58.5938	79.9431	58.5938	80.0025	58.5938	79.9037	58.5938	79.9546	58.5938	79.8725	58.5938	79.9144	58.5938	79.8498	58.5938	79.8822	58.5938	79.8356	58.5938	79.8577	58.5938	79.8295	58.5938	79.8408	58.5938	79.8314
60.0586	80.7985	60.0586	80.7811	60.0586	80.8028	60.0586	80.7513	60.0586	80.7936	60.0586	80.7104	60.0586	80.7711	60.0586	80.6604	60.0586	80.7364	60.0586	80.6033	60.0586	80.6907	60.0586	80.5415	60.0586	80.6363	60.0586	80.4777	60.0586	80.5755	60.0586	80.4142	60.0586	80.5111	60.0586	80.3536	60.0586	80.4458	60.0586	80.2976	60.0586	80.3825	60.0586	80.2479	60.0586	80.3233	60.0586	80.2056	60.0586	80.27	60.0586	80.1711	60.0586	80.224	60.0586	80.1444	60.0586	80.1858	60.0586	80.1254	60.0586	80.1556	60.0586	80.1136	60.0586	80.1332	60.0586	80.1085	60.0586	80.1182	60.0586	80.1101
62.9883	81.417	62.9883	81.3949	62.9883	81.4249	62.9883	81.3595	62.9883	81.4181	62.9883	81.3121	62.9883	81.397	62.9883	81.2547	62.9883	81.3622	62.9883	81.1894	62.9883	81.315	62.9883	81.1189	62.9883	81.2571	62.9883	81.0457	62.9883	81.1908	62.9883	80.9728	62.9883	81.1186	62.9883	80.9025	62.9883	81.0434	62.9883	80.8373	62.9883	80.9681	62.9883	80.7789	62.9883	80.8957	62.9883	80.7285	62.9883	80.8285	62.9883	80.6871	62.9883	80.7689	62.9883	80.6547	62.9883	80.7182	62.9883	80.6313	62.9883	80.6774	62.9883	80.6168	62.9883	80.6465	62.9883	80.6109	62.9883	80.6254	62.9883	80.6137
64.4531	81.6383	64.4531	81.613	64.4531	81.6485	64.4531	81.5734	64.4531	81.6434	64.4531	81.5208	64.4531	81.6231	64.4531	81.4573	64.4531	81.5887	64.4531	81.3852	64.4531	81.5414	64.4531	81.3073	64.4531	81.4831	64.4531	81.2266	64.4531	81.416	64.4531	81.1464	64.4531	81.3427	64.4531	81.0696	64.4531	81.2659	64.4531	80.9992	64.4531	81.1887	64.4531	80.9372	64.4531	81.1137	64.4531	80.8851	64.4531	81.0435	64.4531	80.8439	64.4531	80.9802	64.4531	80.8138	64.4531	80.9251	64.4531	80.7946	64.4531	80.8791	64.4531	80.7856	64.4531	80.8423	64.4531	80.7862	64.4531	80.8147	64.4531	80.796
67.3828	82.0326	67.3828	82.0082	67.3828	82.0417	67.3828	81.969	67.3828	82.0352	67.3828	81.9162	67.3828	82.0139	67.3828	81.8515	67.3828	81.9786	67.3828	81.7772	67.3828	81.931	67.3828	81.6959	67.3828	81.8729	67.3828	81.6107	67.3828	81.8064	67.3828	81.5248	67.3828	81.734	67.3828	81.4415	67.3828	81.6581	67.3828	81.3639	67.3828	81.581	67.3828	81.2947	67.3828	81.5051	67.3828	81.236	67.3828	81.4327	67.3828	81.1895	67.3828	81.3656	67.3828	81.156	67.3828	81.3053	67.3828	81.1358	67.3828	81.253	67.3828	81.1285	67.3828	81.2091	67.3828	81.1331	67.3828	81.1742	67.3828	81.1487
68.8477	82.1338	68.8477	82.1141	68.8477	82.1385	68.8477	82.0797	68.8477	82.1283	68.8477	82.0318	68.8477	82.1038	68.8477	81.972	68.8477	82.0665	68.8477	81.9027	68.8477	82.0178	68.8477	81.8264	68.8477	81.96	68.8477	81.7463	68.8477	81.8952	68.8477	81.6655	68.8477	81.8258	68.8477	81.5872	68.8477	81.754	68.8477	81.5143	68.8477	81.6823	68.8477	81.4494	68.8477	81.6126	68.8477	81.3945	68.8477	81.5469	68.8477	81.3508	68.8477	81.487	68.8477	81.3191	68.8477	81.434	68.8477	81.2993	68.8477	81.3891	68.8477	81.2908	68.8477	81.3524	68.8477	81.2927	68.8477	81.3241	68.8477	81.3041
71.7773	82.4091	71.7773	82.3942	71.7773	82.4085	71.7773	82.3642	71.7773	82.3924	71.7773	82.3204	71.7773	82.3618	71.7773	82.2647	71.7773	82.3183	71.7773	82.1994	71.7773	82.264	71.7773	82.1273	71.7773	82.2016	71.7773	82.0515	71.7773	82.134	71.7773	81.9749	71.7773	82.064	71.7773	81.9006	71.7773	81.9943	71.7773	81.8312	71.7773	81.9272	71.7773	81.7689	71.7773	81.8647	71.7773	81.7155	71.7773	81.8081	71.7773	81.6722	71.7773	81.7582	71.7773	81.6396	71.7773	81.7157	71.7773	81.6181	71.7773	81.6804	71.7773	81.6075	71.7773	81.6521	71.7773	81.6068	71.7773	81.6302	71.7773	81.6148
74.707	82.5819	74.707	82.5736	74.707	82.5757	74.707	82.5511	74.707	82.5553	74.707	82.5154	74.707	82.5214	74.707	82.468	74.707	82.4757	74.707	82.4111	74.707	82.4201	74.707	82.3471	74.707	82.3573	74.707	82.2791	74.707	82.2899	74.707	82.2099	74.707	82.2209	74.707	82.1426	74.707	82.1531	74.707	82.0798	74.707	82.089	74.707	82.0234	74.707	82.0308	74.707	81.9749	74.707	81.9802	74.707	81.9349	74.707	81.9382	74.707	81.9033	74.707	81.9052	74.707	81.8799	74.707	81.8809	74.707	81.864	74.707	81.8645	74.707	81.8549	74.707	81.8551	74.707	81.852
77.6367	82.6725	77.6367	82.6633	77.6367	82.6666	77.6367	82.6395	77.6367	82.6459	77.6367	82.6023	77.6367	82.6114	77.6367	82.5534	77.6367	82.5646	77.6367	82.4953	77.6367	82.5079	77.6367	82.4307	77.6367	82.4438	77.6367	82.3627	77.6367	82.3754	77.6367	82.2947	77.6367	82.3057	77.6367	82.2296	77.6367	82.2378	77.6367	82.17	77.6367	82.1744	77.6367	82.1179	77.6367	82.1179	77.6367	82.0744	77.6367	82.0699	77.6367	82.0395	77.6367	82.0314	77.6367	82.0129	77.6367	82.0025	77.6367	81.9933	77.6367	81.9827	77.6367	81.9796	77.6367	81.9709	77.6367	81.9706	77.6367	81.9657	77.6367	81.966
79.1016	82.7486	79.1016	82.7394	79.1016	82.7423	79.1016	82.715	79.1016	82.7207	79.1016	82.6766	79.1016	82.685	79.1016	82.6259	79.1016	82.6368	79.1016	82.5655	79.1016	82.5785	79.1016	82.4982	79.1016	82.5127	79.1016	82.4273	79.1016	82.4426	79.1016	82.3561	79.1016	82.3713	79.1016	82.288	79.1016	82.3018	79.1016	82.2258	79.1016	82.237	79.1016	82.1715	79.1016	82.1793	79.1016	82.1265	79.1016	82.1302	79.1016	82.0909	79.1016	82.0908	79.1016	82.0641	79.1016	82.061	79.1016	82.0449	79.1016	82.0401	79.1016	82.0318	79.1016	82.0272	79.1016	82.0237	79.1016	82.0209	79.1016	82.02
82.0312	83.0298	82.0312	83.0156	82.0312	83.027	82.0312	82.985	82.0312	83.0075	82.0312	82.9394	82.0312	82.9722	82.0312	82.8809	82.0312	82.9227	82.0312	82.8123	82.0312	82.8613	82.0312	82.737	82.0312	82.7908	82.0312	82.6588	82.0312	82.7145	82.0312	82.5814	82.0312	82.6357	82.0312	82.5084	82.0312	82.5581	82.0312	82.4426	82.0312	82.4849	82.0312	82.3862	82.0312	82.419	82.0312	82.3402	82.0312	82.3625	82.0312	82.3045	82.0312	82.3168	82.0312	82.278	82.0312	82.2821	82.0312	82.2591	82.0312	82.2577	82.0312	82.2461	82.0312	82.2427	82.0312	82.238	82.0312	82.2353	82.0312	82.2342
84.9609	83.1598	84.9609	83.1411	84.9609	83.1612	84.9609	83.1056	84.9609	83.1455	84.9609	83.0547	84.9609	83.1137	84.9609	82.9907	84.9609	83.0675	84.9609	82.9166	84.9609	83.0094	84.9609	82.836	84.9609	82.942	84.9609	82.7529	84.9609	82.8685	84.9609	82.6715	84.9609	82.7922	84.9609	82.5954	84.9609	82.7163	84.9609	82.5278	84.9609	82.6439	84.9609	82.4711	84.9609	82.5776	84.9609	82.4263	84.9609	82.5194	84.9609	82.3935	84.9609	82.4706	84.9609	82.3717	84.9609	82.4315	84.9609	82.359	84.9609	82.4017	84.9609	82.3534	84.9609	82.3804	84.9609	82.3531	84.9609	82.366	84.9609	82.3573
87.8906	83.1218	87.8906	83.0999	87.8906	83.1271	87.8906	83.0622	87.8906	83.1157	87.8906	83.0103	87.8906	83.0885	87.8906	82.947	87.8906	83.0472	87.8906	82.8753	87.8906	82.9942	87.8906	82.7991	87.8906	82.9323	87.8906	82.7222	87.8906	82.8649	87.8906	82.6486	87.8906	82.7953	87.8906	82.5818	87.8906	82.7272	87.8906	82.5244	87.8906	82.6636	87.8906	82.4785	87.8906	82.6069	87.8906	82.4448	87.8906	82.5589	87.8906	82.423	87.8906	82.52	87.8906	82.4118	87.8906	82.4899	87.8906	82.409	87.8906	82.4674	87.8906	82.412	87.8906	82.4506	87.8906	82.4187	87.8906	82.4378	87.8906	82.4274
90.8203	83.3728	90.8203	83.3586	90.8203	83.3701	90.8203	83.3284	90.8203	83.3507	90.8203	83.284	90.8203	83.3161	90.8203	83.228	90.8203	83.2687	90.8203	83.1638	90.8203	83.2119	90.8203	83.0953	90.8203	83.1496	90.8203	83.0268	90.8203	83.0861	90.8203	82.9623	90.8203	83.0256	90.8203	82.9057	90.8203	82.9714	90.8203	82.8598	90.8203	82.9259	90.8203	82.8263	90.8203	82.8905	90.8203	82.8053	90.8203	82.8653	90.8203	82.7957	90.8203	82.8493	90.8203	82.7952	90.8203	82.8406	90.8203	82.8009	90.8203	82.8366	90.8203	82.8098	90.8203	82.8345	90.8203	82.819	90.8203	82.8317	90.8203	82.8267
95.2148	83.7064	95.2148	83.6999	95.2148	83.6942	95.2148	83.6755	95.2148	83.6636	95.2148	83.6344	95.2148	83.6151	95.2148	83.5788	95.2148	83.5505	95.2148	83.5116	95.2148	83.4721	95.2148	83.4366	95.2148	83.3838	95.2148	83.3579	95.2148	83.2903	95.2148	83.28	95.2148	83.1976	95.2148	83.2073	95.2148	83.1118	95.2148	83.1435	95.2148	83.0385	95.2148	83.0912	95.2148	82.9821	95.2148	83.0518	95.2148	82.9447	95.2148	83.0247	95.2148	82.9258	95.2148	83.0077	95.2148	82.9227	95.2148	82.9976	95.2148	82.9307	95.2148	82.9905	95.2148	82.9445	95.2148	82.9831	95.2148	82.9597	95.2148	82.973
98.1445	83.8878	98.1445	83.8775	98.1445	83.8789	98.1445	83.8488	98.1445	83.8511	98.1445	83.803	98.1445	83.8051	98.1445	83.7422	98.1445	83.7422	98.1445	83.6692	98.1445	83.6647	98.1445	83.5876	98.1445	83.5753	98.1445	83.5011	98.1445	83.4775	98.1445	83.4138	98.1445	83.3754	98.1445	83.3292	98.1445	83.2732	98.1445	83.2502	98.1445	83.1759	98.1445	83.1792	98.1445	83.088	98.1445	83.1171	98.1445	83.014	98.1445	83.0643	98.1445	82.9568	98.1445	83.0201	98.1445	82.9178	98.1445	82.9834	98.1445	82.8962	98.1445	82.9528	98.1445	82.8895	98.1445	82.9276	98.1445	82.8945	98.1445	82.9079
101.074	83.8679	101.074	83.8561	101.074	83.8612	101.074	83.8272	101.074	83.8353	101.074	83.7838	101.074	83.7904	101.074	83.7289	101.074	83.7279	101.074	83.6662	101.074	83.6501	101.074	83.5998	101.074	83.5603	101.074	83.5336	101.074	83.4625	101.074	83.4714	101.074	83.361	101.074	83.4156	101.074	83.2604	101.074	83.3667	101.074	83.1654	101.074	83.3237	101.074	83.0807	101.074	83.2836	101.074	83.0107	101.074	83.243	101.074	82.9588	101.074	83.1988	101.074	82.9272	101.074	83.1496	101.074	82.9166	101.074	83.0966	101.074	82.9259	101.074	83.0428	101.074	82.9527	101.074	82.9932
105.469	83.8294	105.469	83.8261	105.469	83.8154	105.469	83.8051	105.469	83.7861	105.469	83.7671	105.469	83.7444	105.469	83.7139	105.469	83.6938	105.469	83.6486	105.469	83.6381	105.469	83.5751	105.469	83.581	105.469	83.4978	105.469	83.5259	105.469	83.4214	105.469	83.4752	105.469	83.3505	105.469	83.4301	105.469	83.289	105.469	83.391	105.469	83.2396	105.469	83.3569	105.469	83.2031	105.469	83.3266	105.469	83.179	105.469	83.2983	105.469	83.1654	105.469	83.2708	105.469	83.1599	105.469	83.2439	105.469	83.161	105.469	83.2187	105.469	83.1676	105.469	83.1969	105.469	83.1796
108.398	83.8633	108.398	83.8477	108.398	83.8557	108.398	83.8105	108.398	83.8247	108.398	83.7548	108.398	83.7723	108.398	83.685	108.398	83.7018	108.398	83.6065	108.398	83.6184	108.398	83.5247	108.398	83.5286	108.398	83.4449	108.398	83.4397	108.398	83.3713	108.398	83.3588	108.398	83.3072	108.398	83.2918	108.398	83.2544	108.398	83.2423	108.398	83.2138	108.398	83.2111	108.398	83.1857	108.398	83.196	108.398	83.1698	108.398	83.1928	108.398	83.1651	108.398	83.196	108.398	83.1692	108.398	83.2007	108.398	83.1785	108.398	83.2035	108.398	83.1891	108.398	83.2027	108.398	83.1977
112.793	83.7449	112.793	83.739	112.793	83.7236	112.793	83.7076	112.793	83.6758	112.793	83.6543	112.793	83.604	112.793	83.5843	112.793	83.5129	112.793	83.5048	112.793	83.4086	112.793	83.4235	112.793	83.2983	112.793	83.3486	112.793	83.1899	112.793	83.2875	112.793	83.0911	112.793	83.2455	112.793	83.009	112.793	83.225	112.793	82.9492	112.793	83.2251	112.793	82.9155	112.793	83.2409	112.793	82.9094	112.793	83.265	112.793	82.9297	112.793	83.288	112.793	82.9726	112.793	83.3009	112.793	83.0318	112.793	83.2968	112.793	83.0997	112.793	83.2721	112.793	83.1677	112.793	83.2275
117.188	83.6501	117.188	83.6288	117.188	83.642	117.188	83.5802	117.188	83.6041	117.188	83.5074	117.188	83.5377	117.188	83.4153	117.188	83.4459	117.188	83.3102	117.188	83.3344	117.188	83.1998	117.188	83.2107	117.188	83.0931	117.188	83.0841	117.188	82.9992	117.188	82.9648	117.188	82.9263	117.188	82.8621	117.188	82.8795	117.188	82.7836	117.188	82.8599	117.188	82.7332	117.188	82.8639	117.188	82.7116	117.188	82.8836	117.188	82.716	117.188	82.9092	117.188	82.7412	117.188	82.9306	117.188	82.7804	117.188	82.9399	117.188	82.8263	117.188	82.9327	117.188	82.8714	117.188	82.9088
120.117	83.5547	120.117	83.5248	120.117	83.5563	120.117	83.4689	120.117	83.5279	120.117	83.3908	120.117	83.4698	120.117	83.2953	120.117	83.3841	120.117	83.188	120.117	83.2747	120.117	83.0755	120.117	83.1484	120.117	82.965	120.117	83.0139	120.117	82.8641	120.117	82.8814	120.117	82.7795	120.117	82.7617	120.117	82.7161	120.117	82.6637	120.117	82.676	120.117	82.5935	120.117	82.6575	120.117	82.553	120.117	82.6559	120.117	82.5399	120.117	82.6637	120.117	82.5488	120.117	82.6732	120.117	82.5723	120.117	82.6778	120.117	82.6028	120.117	82.6732	120.117	82.6332	120.117	82.6579
124.512	83.5937	124.512	83.5111	124.512	83.6458	124.512	83.4017	124.512	83.6653	124.512	83.2701	124.512	83.6513	124.512	83.1222	124.512	83.6045	124.512	82.9652	124.512	83.5277	124.512	82.8072	124.512	83.4256	124.512	82.6573	124.512	83.3052	124.512	82.5243	124.512	83.1751	124.512	82.4162	124.512	83.0451	124.512	82.3387	124.512	82.9245	124.512	82.2939	124.512	82.8204	124.512	82.2804	124.512	82.737	124.512	82.2933	124.512	82.6741	124.512	82.3256	124.512	82.6285	124.512	82.3691	124.512	82.5944	124.512	82.4166	124.512	82.5656	124.512	82.4622	124.512	82.5363	124.512	82.5024
128.906	83.3344	128.906	83.3036	128.906	83.3315	128.906	83.2387	128.906	83.2968	128.906	83.1414	128.906	83.2336	128.906	83.0158	128.906	83.1459	128.906	82.868	128.906	83.0386	128.906	82.7063	128.906	82.917	128.906	82.5403	128.906	82.7877	128.906	82.3797	128.906	82.6578	128.906	82.2339	128.906	82.5348	128.906	82.1108	128.906	82.4259	128.906	82.0158	128.906	82.3364	128.906	81.9519	128.906	82.268	128.906	81.9186	128.906	82.2189	128.906	81.9131	128.906	82.1835	128.906	81.9303	128.906	82.1544	128.906	81.9634	128.906	82.1247	128.906	82.0054	128.906	82.09	128.906	82.0494
133.301	83.0421	133.301	83.0499	133.301	83.0053	133.301	83.0273	133.301	82.9422	133.301	82.9747	133.301	82.8564	133.301	82.8939	133.301	82.7527	133.301	82.7889	133.301	82.6365	133.301	82.6658	133.301	82.5138	133.301	82.5327	133.301	82.3909	133.301	82.3992	133.301	82.2745	133.301	82.2755	133.301	82.1709	133.301	82.1701	133.301	82.0856	133.301	82.0889	133.301	82.0226	133.301	82.0334	133.301	81.9829	133.301	82.0012	133.301	81.9647	133.301	81.987	133.301	81.963	133.301	81.9847	133.301	81.9711	133.301	81.9883	133.301	81.9822	133.301	81.9928	133.301	81.9909	133.301	81.9944
139.16	82.7183	139.16	82.6997	139.16	82.7026	139.16	82.6496	139.16	82.6524	139.16	82.5727	139.16	82.5702	139.16	82.476	139.16	82.4607	139.16	82.3679	139.16	82.3313	139.16	82.2575	139.16	82.1915	139.16	82.1539	139.16	82.052	139.16	82.0645	139.16	81.9235	139.16	81.9944	139.16	81.8156	139.16	81.9458	139.16	81.735	139.16	81.918	139.16	81.6851	139.16	81.9073	139.16	81.6656	139.16	81.908	139.16	81.6731	139.16	81.9133	139.16	81.7018	139.16	81.9167	139.16	81.7438	139.16	81.9129	139.16	81.791	139.16	81.8987	139.16	81.8359	139.16	81.8728
143.555	82.7935	143.555	82.7333	143.555	82.8104	143.555	82.6324	143.555	82.7834	143.555	82.4966	143.555	82.7142	143.555	82.3346	143.555	82.6065	143.555	82.159	143.555	82.4665	143.555	81.9849	143.555	82.3032	143.555	81.8286	143.555	82.1284	143.555	81.7043	143.555	81.9564	143.555	81.6211	143.555	81.8019	143.555	81.5805	143.555	81.6777	143.555	81.5766	143.555	81.592	143.555	81.5985	143.555	81.5468	143.555	81.6336	143.555	81.5376	143.555	81.6699	143.555	81.5557	143.555	81.6988	143.555	81.5906	143.555	81.7146	143.555	81.6317	143.555	81.7148	143.555	81.6702	143.555	81.6993
147.949	82.8802	147.949	82.8404	147.949	82.8804	147.949	82.7601	147.949	82.8431	147.949	82.6398	147.949	82.7711	147.949	82.4824	147.949	82.6681	147.949	82.2937	147.949	82.5389	147.949	82.0836	147.949	82.3897	147.949	81.8665	147.949	82.2286	147.949	81.6604	147.949	82.0652	147.949	81.4839	147.949	81.9104	147.949	81.352	147.949	81.7748	147.949	81.272	147.949	81.6661	147.949	81.2415	147.949	81.5876	147.949	81.2501	147.949	81.5368	147.949	81.2836	147.949	81.507	147.949	81.3283	147.949	81.4897	147.949	81.3733	147.949	81.4769	147.949	81.412	147.949	81.4623	147.949	81.4416
153.809	82.6791	153.809	82.6471	153.809	82.6737	153.809	82.5796	153.809	82.6295	153.809	82.4791	153.809	82.5463	153.809	82.3486	153.809	82.4251	153.809	82.1919	153.809	82.2689	153.809	82.0144	153.809	82.0825	153.809	81.8241	153.809	81.8743	153.809	81.6326	153.809	81.656	153.809	81.4548	153.809	81.4428	153.809	81.3065	153.809	81.2521	153.809	81.2005	153.809	81.1002	153.809	81.142	153.809	80.9983	153.809	81.1261	153.809	80.9494	153.809	81.1385	153.809	80.9474	153.809	81.1602	153.809	80.9799	153.809	81.1735	153.809	81.0319	153.809	81.1667	153.809	81.0886	153.809	81.1369
159.668	82.5616	159.668	82.5452	159.668	82.5417	159.668	82.4926	159.668	82.487	159.668	82.4062	159.668	82.4008	159.668	82.2905	159.668	82.2878	159.668	82.1518	159.668	82.1534	159.668	81.9978	159.668	82.0035	159.668	81.837	159.668	81.8445	159.668	81.6784	159.668	81.6826	159.668	81.5307	159.668	81.5248	159.668	81.4015	159.668	81.3787	159.668	81.2966	159.668	81.2523	159.668	81.2188	159.668	81.1536	159.668	81.167	159.668	81.0878	159.668	81.137	159.668	81.0553	159.668	81.122	159.668	81.0501	159.668	81.1145	159.668	81.0621	159.668	81.1077	159.668	81.0804	159.668	81.0967
165.527	82.3928	165.527	82.3656	165.527	82.3793	165.527	82.299	165.527	82.3261	165.527	82.1974	165.527	82.2365	165.527	82.0678	165.527	82.1163	165.527	81.9203	165.527	81.9731	165.527	81.7673	165.527	81.8165	165.527	81.622	165.527	81.6581	165.527	81.4975	165.527	81.5099	165.527	81.404	165.527	81.3836	165.527	81.3475	165.527	81.2885	165.527	81.3281	165.527	81.2301	165.527	81.3397	165.527	81.2091	165.527	81.372	165.527	81.2215	165.527	81.412	165.527	81.2596	165.527	81.448	165.527	81.3133	165.527	81.4707	165.527	81.3709	165.527	81.4749	165.527	81.422	165.527	81.4582
171.387	82.5452	171.387	82.5251	171.387	82.5268	171.387	82.4655	171.387	82.4719	171.387	82.3665	171.387	82.3833	171.387	82.2302	171.387	82.2649	171.387	82.0613	171.387	82.1217	171.387	81.8678	171.387	81.9599	171.387	81.6618	171.387	81.7878	171.387	81.4592	171.387	81.6151	171.387	81.2781	171.387	81.453	171.387	81.1351	171.387	81.3128	171.387	81.0416	171.387	81.2042	171.387	80.9998	171.387	81.1329	171.387	81.0029	171.387	81.0994	171.387	81.0368	171.387	81.0982	171.387	81.0848	171.387	81.1186	171.387	81.1313	171.387	81.1471	171.387	81.1645	171.387	81.1702	171.387	81.1777
177.246	82.4095	177.246	82.3998	177.246	82.3797	177.246	82.3517	177.246	82.3107	177.246	82.2682	177.246	82.2054	177.246	82.1537	177.246	82.0686	177.246	82.0149	177.246	81.9083	177.246	81.8604	177.246	81.7348	177.246	81.7012	177.246	81.5602	177.246	81.5499	177.246	81.3972	177.246	81.4194	177.246	81.257	177.246	81.3204	177.246	81.148	177.246	81.2581	177.246	81.0745	177.246	81.2301	177.246	81.0363	177.246	81.2272	177.246	81.0292	177.246	81.2363	177.246	81.0466	177.246	81.2447	177.246	81.0805	177.246	81.2439	177.246	81.1227	177.246	81.23	177.246	81.1656	177.246	81.203
183.105	82.5258	183.105	82.5343	183.105	82.4688	183.105	82.4936	183.105	82.3659	183.105	82.4058	183.105	82.2224	183.105	82.2758	183.105	82.0451	183.105	82.1118	183.105	81.8439	183.105	81.9253	183.105	81.6312	183.105	81.7312	183.105	81.423	183.105	81.5467	183.105	81.2371	183.105	81.3904	183.105	81.0915	183.105	81.2785	183.105	81.0002	183.105	81.2217	183.105	80.9705	183.105	81.2214	183.105	81	183.105	81.2684	183.105	81.0779	183.105	81.3454	183.105	81.1872	183.105	81.4307	183.105	81.3074	183.105	81.5029	183.105	81.4183	183.105	81.545	183.105	81.5018	183.105	81.5457
188.965	82.7076	188.965	82.7071	188.965	82.658	188.965	82.6587	188.965	82.5582	188.965	82.566	188.965	82.4096	188.965	82.4351	188.965	82.2157	188.965	82.2743	188.965	81.9827	188.965	82.0945	188.965	81.7212	188.965	81.909	188.965	81.4468	188.965	81.7331	188.965	81.1805	188.965	81.5824	188.965	80.9467	188.965	81.4686	188.965	80.7689	188.965	81.3968	188.965	80.6639	188.965	81.3631	188.965	80.6362	188.965	81.3555	188.965	80.6768	188.965	81.3583	188.965	80.7672	188.965	81.3561	188.965	80.8855	188.965	81.3371	188.965	81.0109	188.965	81.2938	188.965	81.1272	188.965	81.2234
196.289	82.9156	196.289	82.8828	196.289	82.8976	196.289	82.8009	196.289	82.8294	196.289	82.6737	196.289	82.7131	196.289	82.5076	196.289	82.5522	196.289	82.3116	196.289	82.3523	196.289	82.0975	196.289	82.1219	196.289	81.8799	196.289	81.873	196.289	81.6767	196.289	81.622	196.289	81.5071	196.289	81.3883	196.289	81.3885	196.289	81.1928	196.289	81.3303	196.289	81.0537	196.289	81.3295	196.289	80.982	196.289	81.3698	196.289	80.9781	196.289	81.4268	196.289	81.0308	196.289	81.4752	196.289	81.1216	196.289	81.4956	196.289	81.2293	196.289	81.478	196.289	81.3349	196.289	81.422
203.613	83.0793	203.613	83.044	203.613	83.0602	203.613	82.9559	203.613	82.9866	203.613	82.8193	203.613	82.8605	203.613	82.6408	203.613	82.6858	203.613	82.4302	203.613	82.4687	203.613	82.2008	203.613	82.2182	203.613	81.9688	203.613	81.9477	203.613	81.7527	203.613	81.6746	203.613	81.5716	203.613	81.4201	203.613	81.4412	203.613	81.208	203.613	81.3704	203.613	81.0604	203.613	81.3574	203.613	80.9922	203.613	81.3892	203.613	81.0047	203.613	81.4449	203.613	81.0828	203.613	81.5016	203.613	81.1994	203.613	81.5393	203.613	81.3243	203.613	81.5438	203.613	81.4326	203.613	81.5083
210.938	83.2609	210.938	83.203	210.938	83.2661	210.938	83.0924	210.938	83.2194	210.938	82.9303	210.938	83.1229	210.938	82.7196	210.938	82.9803	210.938	82.4665	210.938	82.7972	210.938	82.1819	210.938	82.5811	210.938	81.8831	210.938	82.3423	210.938	81.594	210.938	82.0928	210.938	81.3426	210.938	81.8464	210.938	81.1552	210.938	81.6173	210.938	81.0475	210.938	81.4195	210.938	81.0175	210.938	81.2659	210.938	81.0465	210.938	81.1654	210.938	81.1062	210.938	81.12	210.938	81.1691	210.938	81.1217	210.938	81.2153	210.938	81.1534	210.938	81.2346	210.938	81.1943	210.938	81.2257
218.262	83.26	218.262	83.2288	218.262	83.2411	218.262	83.1465	218.262	83.1732	218.262	83.0127	218.262	83.058	218.262	82.8289	218.262	82.8988	218.262	82.6004	218.262	82.7019	218.262	82.3381	218.262	82.4772	218.262	82.06	218.262	82.2394	218.262	81.7911	218.262	82.0076	218.262	81.5605	218.262	81.8032	218.262	81.3956	218.262	81.6457	218.262	81.3123	218.262	81.5472	218.262	81.3085	218.262	81.5085	218.262	81.3649	218.262	81.5199	218.262	81.4534	218.262	81.5641	218.262	81.5479	218.262	81.6216	218.262	81.6291	218.262	81.6738	218.262	81.6856	218.262	81.7068	218.262	81.7118
225.586	83.5005	225.586	83.5008	225.586	83.4512	225.586	83.4488	225.586	83.3542	225.586	83.3404	225.586	83.2091	225.586	83.1727	225.586	83.0153	225.586	82.9458	225.586	82.7742	225.586	82.6669	225.586	82.4917	225.586	82.3525	225.586	82.1802	225.586	82.0312	225.586	81.8602	225.586	81.7419	225.586	81.5586	225.586	81.5257	225.586	81.306	225.586	81.4112	225.586	81.13	225.586	81.4	225.586	81.048	225.586	81.4655	225.586	81.0614	225.586	81.566	225.586	81.1542	225.586	81.6615	225.586	81.2968	225.586	81.7233	225.586	81.4538	225.586	81.7351	225.586	81.5929	225.586	81.6907
232.91	83.4839	232.91	83.4495	232.91	83.4638	232.91	83.3644	232.91	83.3852	232.91	83.2311	232.91	83.2441	232.91	83.0516	232.91	83.0379	232.91	82.8283	232.91	82.7677	232.91	82.5663	232.91	82.44	232.91	82.276	232.91	82.0705	232.91	81.977	232.91	81.6864	232.91	81.7006	232.91	81.3257	232.91	81.4858	232.91	81.031	232.91	81.3668	232.91	80.8375	232.91	81.3542	232.91	80.7618	232.91	81.4256	232.91	80.7985	232.91	81.5364	232.91	80.9249	232.91	81.6394	232.91	81.108	232.91	81.7	232.91	81.3099	232.91	81.6989	232.91	81.4932	232.91	81.6285
241.699	83.3821	241.699	83.3181	241.699	83.389	241.699	83.1962	241.699	83.34	241.699	83.0172	241.699	83.2353	241.699	82.7854	241.699	83.0735	241.699	82.5096	241.699	82.8522	241.699	82.2043	241.699	82.5696	241.699	81.8909	241.699	82.2279	241.699	81.5976	241.699	81.8367	241.699	81.3569	241.699	81.419	241.699	81.1992	241.699	81.0146	241.699	81.1426	241.699	80.6778	241.699	81.1808	241.699	80.4644	241.699	81.2811	241.699	80.4082	241.699	81.3968	241.699	80.5028	241.699	81.4845	241.699	80.7036	241.699	81.5157	241.699	80.9483	241.699	81.4765	241.699	81.1808	241.699	81.3631
250.488	83.4937	250.488	83.4544	250.488	83.4672	250.488	83.3495	250.488	83.3754	250.488	83.1805	250.488	83.2205	250.488	82.9493	250.488	83.0074	250.488	82.66	250.488	82.7447	250.488	82.3206	250.488	82.4453	250.488	81.9466	250.488	82.1251	250.488	81.5639	250.488	81.7999	250.488	81.2104	250.488	81.4838	250.488	80.9303	250.488	81.1894	250.488	80.7605	250.488	80.9315	250.488	80.7135	250.488	80.7312	250.488	80.769	250.488	80.6139	250.488	80.8824	250.488	80.5977	250.488	81.0035	250.488	80.6769	250.488	81.0913	250.488	80.8165	250.488	81.119	250.488	80.9647	250.488	81.0748
259.277	83.6267	259.277	83.6025	259.277	83.5878	259.277	83.5143	259.277	83.4879	259.277	83.3625	259.277	83.328	259.277	83.149	259.277	83.1078	259.277	82.8762	259.277	82.8257	259.277	82.5476	259.277	82.4822	259.277	82.1711	259.277	82.0848	259.277	81.7661	259.277	81.654	259.277	81.3711	259.277	81.2267	259.277	81.0449	259.277	80.8527	259.277	80.8509	259.277	80.5819	259.277	80.8225	259.277	80.4455	259.277	80.9348	259.277	80.4446	259.277	81.1149	259.277	80.5548	259.277	81.2816	259.277	80.7378	259.277	81.3799	259.277	80.9509	259.277	81.3875	259.277	81.1523	259.277	81.3064
268.066	83.3676	268.066	83.2903	268.066	83.379	268.066	83.1448	268.066	83.3291	268.066	82.9332	268.066	83.2223	268.066	82.6604	268.066	83.059	268.066	82.3338	268.066	82.8342	268.066	81.9617	268.066	82.5414	268.066	81.557	268.066	82.1808	268.066	81.1433	268.066	81.7671	268.066	80.7624	268.066	81.3333	268.066	80.4723	268.066	80.9232	268.066	80.3273	268.066	80.5766	268.066	80.3427	268.066	80.3193	268.066	80.4774	268.066	80.165	268.066	80.6548	268.066	80.123	268.066	80.8011	268.066	80.1926	268.066	80.8687	268.066	80.3491	268.066	80.8402	268.066	80.5443	268.066	80.7229
276.855	83.217	276.855	83.1737	276.855	83.201	276.855	83.0746	276.855	83.1266	276.855	82.9254	276.855	82.9981	276.855	82.7316	276.855	82.8208	276.855	82.4946	276.855	82.5967	276.855	82.2093	276.855	82.3218	276.855	81.8635	276.855	81.988	276.855	81.4436	276.855	81.5938	276.855	80.9494	276.855	81.162	276.855	80.4158	276.855	80.7529	276.855	79.931	276.855	80.4495	276.855	79.6205	276.855	80.3039	276.855	79.5709	276.855	80.2939	276.855	79.7511	276.855	80.3478	276.855	80.034	276.855	80.4088	276.855	80.2907	276.855	80.4598	276.855	80.4514	276.855	80.4996	276.855	80.5098
287.109	82.7473	287.109	82.7197	287.109	82.7314	287.109	82.648	287.109	82.6725	287.109	82.5315	287.109	82.5712	287.109	82.3707	287.109	82.4294	287.109	82.1684	287.109	82.2509	287.109	81.9319	287.109	82.039	287.109	81.6706	287.109	81.7895	287.109	81.3929	287.109	81.483	287.109	81.1021	287.109	81.0904	287.109	80.8021	287.109	80.6004	287.109	80.5116	287.109	80.0613	287.109	80.2786	287.109	79.6028	287.109	80.1692	287.109	79.3812	287.109	80.2198	287.109	79.4563	287.109	80.3899	287.109	79.7431	287.109	80.5755	287.109	80.1005	287.109	80.6713	287.109	80.4161	287.109	80.6191
297.363	83.3397	297.363	83.3336	297.363	83.2807	297.363	83.25	297.363	83.1655	297.363	83.0755	297.363	82.9989	297.363	82.7982	297.363	82.7808	297.363	82.4113	297.363	82.5042	297.363	81.9171	297.363	82.1558	297.363	81.3411	297.363	81.7245	297.363	80.7561	297.363	81.2196	297.363	80.2966	297.363	80.6838	297.363	80.1012	297.363	80.1853	297.363	80.1835	297.363	79.7864	297.363	80.397	297.363	79.5228	297.363	80.5647	297.363	79.4175	297.363	80.6003	297.363	79.4842	297.363	80.5247	297.363	79.6898	297.363	80.4157	297.363	79.9415	297.363	80.3313	297.363	80.143	297.363	80.2602
307.617	83.0888	307.617	83.0547	307.617	83.089	307.617	82.9879	307.617	83.0516	307.617	82.8866	307.617	82.969	307.617	82.7445	307.617	82.8303	307.617	82.5483	307.617	82.6261	307.617	82.2756	307.617	82.3559	307.617	81.8942	307.617	82.0271	307.617	81.3702	307.617	81.6457	307.617	80.6955	307.617	81.2089	307.617	79.9376	307.617	80.7147	307.617	79.2865	307.617	80.1854	307.617	79.002	307.617	79.6829	307.617	79.187	307.617	79.2972	307.617	79.6524	307.617	79.1114	307.617	80.1055	307.617	79.1625	307.617	80.357	307.617	79.417	307.617	80.3526	307.617	79.78	307.617	80.1305
319.336	83.3414	319.336	83.2169	319.336	83.3799	319.336	83.0133	319.336	83.3325	319.336	82.7384	319.336	83.2107	319.336	82.3969	319.336	83.033	319.336	81.9938	319.336	82.8125	319.336	81.5422	319.336	82.546	319.336	81.0666	319.336	82.2159	319.336	80.5962	319.336	81.8069	319.336	80.1544	319.336	81.3282	319.336	79.7613	319.336	80.8246	319.336	79.4563	319.336	80.3679	319.336	79.3039	319.336	80.0311	319.336	79.3469	319.336	79.8577	319.336	79.5475	319.336	79.8419	319.336	79.8052	319.336	79.9331	319.336	80.0271	319.336	80.062	319.336	80.1655	319.336	80.1676	319.336	80.2096
329.59	82.9899	329.59	82.9402	329.59	82.9986	329.59	82.8542	329.59	82.9603	329.59	82.7325	329.59	82.8689	329.59	82.569	329.59	82.7217	329.59	82.3484	329.59	82.5212	329.59	82.0493	329.59	82.2716	329.59	81.6548	329.59	81.9707	329.59	81.1652	329.59	81.6043	329.59	80.6104	329.59	81.1528	329.59	80.0556	329.59	80.6113	329.59	79.5947	329.59	80.0148	329.59	79.3197	329.59	79.4539	329.59	79.2688	329.59	79.0596	329.59	79.3977	329.59	78.9354	329.59	79.605	329.59	79.0729	329.59	79.7868	329.59	79.353	329.59	79.8703	329.59	79.6339	329.59	79.8197
341.309	83.2806	341.309	83.252	341.309	83.2211	341.309	83.1338	341.309	83.0799	341.309	82.9305	341.309	82.8625	341.309	82.6508	341.309	82.5682	341.309	82.3053	341.309	82.191	341.309	81.9044	341.309	81.7332	341.309	81.4533	341.309	81.2238	341.309	80.9472	341.309	80.7239	341.309	80.3772	341.309	80.3101	341.309	79.7601	341.309	80.0387	341.309	79.1801	341.309	79.9191	341.309	78.7886	341.309	79.9208	341.309	78.7102	341.309	80.0059	341.309	78.9332	341.309	80.147	341.309	79.3316	341.309	80.3128	341.309	79.7669	341.309	80.4489	341.309	80.1397	341.309	80.4899	341.309	80.3897
353.027	82.9562	353.027	82.9516	353.027	82.9149	353.027	82.895	353.027	82.8348	353.027	82.7822	353.027	82.7223	353.027	82.6101	353.027	82.5774	353.027	82.3748	353.027	82.3831	353.027	82.0713	353.027	82.098	353.027	81.6987	353.027	81.6641	353.027	81.2653	353.027	81.0297	353.027	80.7908	353.027	80.1812	353.027	80.3088	353.027	79.1813	353.027	79.883	353.027	78.2077	353.027	79.6125	353.027	77.5344	353.027	79.5685	353.027	77.3691	353.027	79.6995	353.027	77.6736	353.027	79.861	353.027	78.2322	353.027	79.9357	353.027	78.8315	353.027	79.8804	353.027	79.3346	353.027	79.6845
366.211	83.3281	366.211	83.2265	366.211	83.3732	366.211	83.0683	366.211	83.3615	366.211	82.8522	366.211	83.2909	366.211	82.5734	366.211	83.1554	366.211	82.2204	366.211	82.9447	366.211	81.7734	366.211	82.6469	366.211	81.2124	366.211	82.2541	366.211	80.5373	366.211	81.7681	366.211	79.8005	366.211	81.1971	366.211	79.1268	366.211	80.5438	366.211	78.6706	366.211	79.8115	366.211	78.5017	366.211	79.0588	366.211	78.5585	366.211	78.4648	366.211	78.7354	366.211	78.2448	366.211	78.9528	366.211	78.4039	366.211	79.1436	366.211	78.728	366.211	79.2414	366.211	79.0229	366.211	79.203
379.395	83.2943	379.395	83.1957	379.395	83.3294	379.395	83.0434	379.395	83.3002	379.395	82.8473	379.395	83.2167	379.395	82.6066	379.395	83.0973	379.395	82.3039	379.395	82.961	379.395	81.912	379.395	82.81	379.395	81.41	379.395	82.609	379.395	80.7952	379.395	82.2882	379.395	80.078	379.395	81.7863	379.395	79.2866	379.395	81.1133	379.395	78.5299	379.395	80.386	379.395	78.0721	379.395	79.7811	379.395	78.1715	379.395	79.4184	379.395	78.7236	379.395	79.3138	379.395	79.3586	379.395	79.4266	379.395	79.8203	379.395	79.6708	379.395	80.0471	379.395	79.9205	379.395	80.0667
392.578	82.9947	392.578	82.8916	392.578	83.0218	392.578	82.7459	392.578	82.9667	392.578	82.5994	392.578	82.8477	392.578	82.4762	392.578	82.6858	392.578	82.3625	392.578	82.4903	392.578	82.1999	392.578	82.2671	392.578	81.8998	392.578	82.0275	392.578	81.3858	392.578	81.7644	392.578	80.6522	392.578	81.4219	392.578	79.7975	392.578	80.9207	392.578	78.9903	392.578	80.2449	392.578	78.3999	392.578	79.5224	392.578	78.1776	392.578	78.9966	392.578	78.3921	392.578	78.84	392.578	78.8856	392.578	79.0044	392.578	79.3707	392.578	79.3087	392.578	79.6627	392.578	79.5842	392.578	79.7231
405.762	83.506	405.762	83.3809	405.762	83.5302	405.762	83.1744	405.762	83.4429	405.762	82.9102	405.762	83.2485	405.762	82.6195	405.762	82.9626	405.762	82.3415	405.762	82.5965	405.762	82.1001	405.762	82.1505	405.762	81.858	405.762	81.6378	405.762	81.5087	405.762	81.1137	405.762	80.9479	405.762	80.6437	405.762	80.1697	405.762	80.2147	405.762	79.3092	405.762	79.7389	405.762	78.5888	405.762	79.2004	405.762	78.2007	405.762	78.7608	405.762	78.2213	405.762	78.6257	405.762	78.5715	405.762	78.7949	405.762	79.0322	405.762	79.0937	405.762	79.3744	405.762	79.36	405.762	79.4807
420.41	83.372	420.41	83.3275	420.41	83.3731	420.41	83.2258	420.41	83.3367	420.41	83.0472	420.41	83.2691	420.41	82.7683	420.41	83.1895	420.41	82.3733	420.41	83.1223	420.41	81.884	420.41	83.0547	420.41	81.3697	420.41	82.9062	420.41	80.8722	420.41	82.5593	420.41	80.307	420.41	81.9287	420.41	79.5348	420.41	81.0071	420.41	78.6058	420.41	79.8719	420.41	77.92	420.41	78.6782	420.41	77.8643	420.41	77.6797	420.41	78.2443	420.41	77.1966	420.41	78.6418	420.41	77.3458	420.41	78.8772	420.41	77.8649	420.41	78.9266	420.41	78.4046	420.41	78.7743
435.059	83.356	435.059	83.4316	435.059	83.2418	435.059	83.4523	435.059	83.1025	435.059	83.4095	435.059	82.9392	435.059	83.2968	435.059	82.7426	435.059	83.0854	435.059	82.5082	435.059	82.7119	435.059	82.2442	435.059	82.1177	435.059	81.9602	435.059	81.313	435.059	81.6582	435.059	80.3933	435.059	81.3366	435.059	79.4631	435.059	80.9829	435.059	78.5634	435.059	80.5568	435.059	77.781	435.059	80.0238	435.059	77.3955	435.059	79.4475	435.059	77.6133	435.059	79.0154	435.059	78.2033	435.059	78.8834	435.059	78.7902	435.059	79.0099	435.059	79.1749	435.059	79.2119	435.059	79.3049
451.172	83.2688	451.172	83.1182	451.172	83.3538	451.172	82.9527	451.172	83.3506	451.172	82.8125	451.172	83.2753	451.172	82.7051	451.172	83.1553	451.172	82.6125	451.172	83.0005	451.172	82.4927	451.172	82.8101	451.172	82.2748	451.172	82.5792	451.172	81.8721	451.172	82.2657	451.172	81.2175	451.172	81.7664	451.172	80.3011	451.172	80.9787	451.172	79.2146	451.172	79.9211	451.172	78.2226	451.172	78.8225	451.172	77.7302	451.172	78.0607	451.172	77.9117	451.172	77.8837	451.172	78.4582	451.172	78.1975	451.172	78.9652	451.172	78.692	451.172	79.2485	451.172	79.0953	451.172	79.288
465.82	83.5383	465.82	83.4185	465.82	83.5576	465.82	83.2214	465.82	83.4637	465.82	82.972	465.82	83.268	465.82	82.7031	465.82	83.0084	465.82	82.4569	465.82	82.7249	465.82	82.2445	465.82	82.4283	465.82	81.9935	465.82	82.1037	465.82	81.5797	465.82	81.7449	465.82	80.924	465.82	81.3573	465.82	80.039	465.82	80.9061	465.82	79.0014	465.82	80.2934	465.82	77.9612	465.82	79.4504	465.82	77.2637	465.82	78.519	465.82	77.3163	465.82	77.9336	465.82	77.9843	465.82	78.0094	465.82	78.705	465.82	78.488	465.82	79.1278	465.82	78.951	465.82	79.1923
483.398	83.3028	483.398	83.2639	483.398	83.2789	483.398	83.1684	483.398	83.186	483.398	83.0257	483.398	83.0167	483.398	82.832	483.398	82.7767	483.398	82.565	483.398	82.495	483.398	82.2241	483.398	82.2156	483.398	81.8532	483.398	81.9649	483.398	81.4602	483.398	81.7008	483.398	80.9189	483.398	81.2933	483.398	80.0305	483.398	80.597	483.398	78.7291	483.398	79.5807	483.398	77.3531	483.398	78.4297	483.398	76.6847	483.398	77.526	483.398	76.9703	483.398	77.2075	483.398	77.5588	483.398	77.4684	483.398	78.0103	483.398	77.9644	483.398	78.2921	483.398	78.331	483.398	78.4234
499.512	83.8054	499.512	83.7457	499.512	83.7163	499.512	83.521	499.512	83.5448	499.512	83.2007	499.512	83.3546	499.512	82.9081	499.512	83.1708	499.512	82.7019	499.512	82.9894	499.512	82.5019	499.512	82.8028	499.512	82.1755	499.512	82.5957	499.512	81.6536	499.512	82.3226	499.512	80.9514	499.512	81.9027	499.512	80.1129	499.512	81.2249	499.512	79.1482	499.512	80.1724	499.512	78.0807	499.512	78.7238	499.512	77.2183	499.512	77.1542	499.512	77.209	499.512	76.1299	499.512	78.0568	499.512	76.1618	499.512	78.9388	499.512	77.0062	499.512	79.2791	499.512	78.0921	499.512	78.9521
517.09	83.7078	517.09	83.6891	517.09	83.6507	517.09	83.6079	517.09	83.5129	517.09	83.4638	517.09	83.3308	517.09	83.2699	517.09	83.1699	517.09	83.0855	517.09	83.0553	517.09	82.9539	517.09	82.9348	517.09	82.7772	517.09	82.752	517.09	82.3363	517.09	82.5139	517.09	81.4639	517.09	82.2229	517.09	80.1745	517.09	81.7686	517.09	78.6898	517.09	80.9597	517.09	77.3743	517.09	79.6793	517.09	76.6396	517.09	78.1204	517.09	76.7833	517.09	77.0772	517.09	77.6285	517.09	77.3099	517.09	78.5995	517.09	78.243	517.09	79.2418	517.09	79.0334	517.09	79.3875
536.133	83.8937	536.133	83.6138	536.133	84.0522	536.133	83.275	536.133	84.0166	536.133	82.96	536.133	83.7196	536.133	82.7721	536.133	83.1758	536.133	82.7559	536.133	82.5514	536.133	82.8412	536.133	82.0863	536.133	82.9031	536.133	81.8434	536.133	82.8178	536.133	81.6187	536.133	82.4272	536.133	81.1716	536.133	81.5115	536.133	80.43	536.133	79.868	536.133	79.4872	536.133	77.5914	536.133	78.4477	536.133	75.8014	536.133	77.374	536.133	76.0139	536.133	76.6372	536.133	77.2512	536.133	76.8796	536.133	78.286	536.133	77.827	536.133	78.8716	536.133	78.6508	536.133	79.0024
555.176	84.0323	555.176	84.0185	555.176	83.9317	555.176	83.7668	555.176	83.8182	555.176	83.2591	555.176	83.6972	555.176	82.6588	555.176	83.5324	555.176	82.2381	555.176	83.3449	555.176	82.1058	555.176	83.2151	555.176	82.0627	555.176	83.186	555.176	81.8538	555.176	83.1736	555.176	81.4119	555.176	82.9674	555.176	80.7892	555.176	82.3055	555.176	79.8711	555.176	80.9754	555.176	78.2955	555.176	78.9147	555.176	75.8806	555.176	76.3286	555.176	74.0556	555.176	73.9447	555.176	75.2017	555.176	73.3429	555.176	77.0338	555.176	74.9234	555.176	77.933	555.176	76.7728	555.176	77.8296
574.219	84.4268	574.219	84.2518	574.219	84.3764	574.219	83.927	574.219	84.0988	574.219	83.5182	574.219	83.6788	574.219	83.0634	574.219	83.2274	574.219	82.6602	574.219	82.8611	574.219	82.4874	574.219	82.7085	574.219	82.6034	574.219	82.8174	574.219	82.7622	574.219	83.0649	574.219	82.6001	574.219	83.2433	574.219	81.8787	574.219	83.1469	574.219	80.4762	574.219	82.5469	574.219	78.2692	574.219	81.1856	574.219	75.3416	574.219	78.8634	574.219	73.3529	574.219	75.6661	574.219	74.2242	574.219	72.9191	574.219	75.7877	574.219	73.4122	574.219	76.6999	574.219	75.4554	574.219	76.6593
594.727	84.6583	594.727	84.4766	594.727	84.4986	594.727	83.9524	594.727	84.0814	594.727	83.1783	594.727	83.5218	594.727	82.3177	594.727	82.8993	594.727	81.6028	594.727	82.252	594.727	81.3273	594.727	81.6959	594.727	81.6157	594.727	81.5006	594.727	82.1655	594.727	81.8072	594.727	82.4918	594.727	82.3128	594.727	82.2575	594.727	82.521	594.727	81.3275	594.727	82.0786	594.727	79.699	594.727	80.8017	594.727	77.4693	594.727	78.6173	594.727	75.4504	594.727	75.8961	594.727	75.8115	594.727	74.5353	594.727	77.5013	594.727	75.497	594.727	78.2577	594.727	76.8641	594.727	77.8875
615.234	85.1011	615.234	84.8065	615.234	85.1017	615.234	84.288	615.234	84.7211	615.234	83.565	615.234	83.9348	615.234	82.6311	615.234	82.8407	615.234	81.5386	615.234	81.6417	615.234	80.5307	615.234	80.5674	615.234	80.0336	615.234	79.8797	615.234	80.2223	615.234	79.9333	615.234	80.6783	615.234	80.7243	615.234	80.832	615.234	81.5969	615.234	80.3758	615.234	81.9254	615.234	79.2288	615.234	81.4391	615.234	77.2656	615.234	80.0439	615.234	73.9732	615.234	77.5303	615.234	68.3007	615.234	73.35	615.234	64.3621	615.234	68.2085	615.234	68.6618	615.234	69.0556	615.234	70.3589
637.207	84.3825	637.207	84.3721	637.207	84.3395	637.207	84.2202	637.207	84.2222	637.207	83.8412	637.207	83.9048	637.207	83.2166	637.207	83.2794	637.207	82.3417	637.207	82.3643	637.207	81.2266	637.207	81.2956	637.207	80.0652	637.207	80.2	637.207	79.3339	637.207	79.2157	637.207	79.2653	637.207	78.7828	637.207	79.3277	637.207	79.1804	637.207	78.8746	637.207	79.6983	637.207	77.7101	637.207	79.6273	637.207	76.1408	637.207	78.9184	637.207	74.6605	637.207	77.9081	637.207	73.4592	637.207	76.8621	637.207	72.8484	637.207	75.6573	637.207	72.9401	637.207	74.286	637.207	73.3351
659.18	84.1476	659.18	84.0486	659.18	84.1584	659.18	83.8558	659.18	84.0618	659.18	83.5283	659.18	83.8042	659.18	83.0263	659.18	83.2878	659.18	82.3838	659.18	82.4456	659.18	81.7175	659.18	81.3758	659.18	81.0928	659.18	80.3949	659.18	80.4513	659.18	79.7529	659.18	79.8493	659.18	79.3043	659.18	79.5127	659.18	78.8324	659.18	79.232	659.18	78.394	659.18	78.3069	659.18	78.0485	659.18	76.4469	659.18	77.5646	659.18	74.6478	659.18	76.7597	659.18	74.3733	659.18	75.8674	659.18	74.7692	659.18	75.2749	659.18	74.8549	659.18	74.9732	659.18	74.8315
682.617	84.32	682.617	84.0307	682.617	84.226	682.617	83.4152	682.617	83.8739	682.617	82.7014	682.617	83.4172	682.617	82.0995	682.617	82.8567	682.617	81.5618	682.617	82.1127	682.617	80.9781	682.617	81.2819	682.617	80.59	682.617	80.5782	682.617	80.6119	682.617	79.9707	682.617	80.6634	682.617	79.398	682.617	80.3867	682.617	79.0919	682.617	79.9145	682.617	78.9876	682.617	79.3437	682.617	78.6034	682.617	78.3269	682.617	77.8032	682.617	76.7712	682.617	76.922	682.617	75.5434	682.617	76.2833	682.617	75.1996	682.617	75.9385	682.617	75.2218	682.617	75.7275	682.617	75.4445
707.52	84.227	707.52	84.2125	707.52	84.2264	707.52	84.0704	707.52	84.0653	707.52	83.5468	707.52	83.6355	707.52	82.6224	707.52	83.0583	707.52	81.6191	707.52	82.4153	707.52	80.8344	707.52	81.4944	707.52	80.2741	707.52	80.2215	707.52	80.0286	707.52	79.2108	707.52	80.1418	707.52	79.0102	707.52	80.1239	707.52	79.0144	707.52	79.4411	707.52	78.6877	707.52	78.0185	707.52	78.0045	707.52	76.4346	707.52	76.8496	707.52	75.3468	707.52	75.3309	707.52	74.8036	707.52	74.5483	707.52	75.3406	707.52	74.9955	707.52	76.4046	707.52	75.8558	707.52	76.5566
732.422	83.9644	732.422	83.7109	732.422	84.1089	732.422	83.4571	732.422	84.0687	732.422	83.167	732.422	83.7501	732.422	82.5689	732.422	83.0589	732.422	81.51	732.422	82.0842	732.422	80.3756	732.422	81.1029	732.422	79.8523	732.422	80.3202	732.422	79.886	732.422	79.8441	732.422	79.8283	732.422	79.8027	732.422	79.4754	732.422	80.0115	732.422	78.9126	732.422	79.9665	732.422	77.7664	732.422	79.296	732.422	75.4865	732.422	77.8072	732.422	72.8452	732.422	75.3341	732.422	73.1284	732.422	72.5156	732.422	74.6654	732.422	72.2671	732.422	75.2431	732.422	73.9229	732.422	74.9874
757.324	84.503	757.324	84.325	757.324	84.474	757.324	83.8351	757.324	84.2189	757.324	82.9634	757.324	83.7434	757.324	81.9809	757.324	83.0904	757.324	81.1468	757.324	82.2271	757.324	80.0957	757.324	81.1322	757.324	78.7112	757.324	79.8706	757.324	78.4237	757.324	78.6068	757.324	79.4175	757.324	78.0126	757.324	79.9417	757.324	78.4951	757.324	79.5181	757.324	78.9768	757.324	78.5617	757.324	78.5973	757.324	77.0972	757.324	77.4921	757.324	74.7134	757.324	76.0922	757.324	72.9088	757.324	74.4093	757.324	73.5813	757.324	73.1494	757.324	74.4226	757.324	73.511	757.324	74.2887
785.156	84.2577	785.156	84.1522	785.156	84.2255	785.156	83.8559	785.156	84.1168	785.156	83.4156	785.156	83.8366	785.156	82.6902	785.156	83.3299	785.156	81.4651	785.156	82.6037	785.156	80.0414	785.156	81.5728	785.156	78.9745	785.156	80.2865	785.156	78.1774	785.156	79.2934	785.156	77.8848	785.156	78.9996	785.156	78.5505	785.156	78.9618	785.156	79.0014	785.156	78.7778	785.156	78.1228	785.156	78.3319	785.156	76.1524	785.156	77.3513	785.156	74.4792	785.156	75.2915	785.156	73.5804	785.156	72.6997	785.156	73.3804	785.156	72.4629	785.156	73.8165	785.156	73.4114	785.156	73.8684
811.523	84.6919	811.523	84.4544	811.523	84.8975	811.523	84.2464	811.523	84.7467	811.523	83.7999	811.523	84.1804	811.523	82.9912	811.523	83.4611	811.523	81.8964	811.523	82.7005	811.523	80.4653	811.523	81.629	811.523	78.7833	811.523	80.0572	811.523	77.9384	811.523	78.3443	811.523	78.3459	811.523	77.3445	811.523	78.7831	811.523	77.6883	811.523	78.7982	811.523	78.7525	811.523	78.3015	811.523	79.2652	811.523	76.9123	811.523	78.3918	811.523	74.5957	811.523	76.1769	811.523	73.4143	811.523	73.6741	811.523	74.2469	811.523	72.8302	811.523	75.2848	811.523	74.4823	811.523	75.624
840.82	84.6296	840.82	84.6351	840.82	84.3126	840.82	84.3548	840.82	84.1109	840.82	83.9222	840.82	84.1725	840.82	83.2305	840.82	83.9436	840.82	82.3168	840.82	83.1414	840.82	81.3268	840.82	82.1743	840.82	79.9632	840.82	81.1992	840.82	78.1241	840.82	79.7701	840.82	77.092	840.82	78.3795	840.82	77.2934	840.82	78.1853	840.82	76.9759	840.82	78.1685	840.82	75.9871	840.82	77.3639	840.82	75.0618	840.82	76.2765	840.82	74.0414	840.82	75.1147	840.82	72.9863	840.82	73.7555	840.82	73.6937	840.82	73.4038	840.82	75.0574	840.82	74.1234	840.82	75.0151
870.117	84.3123	870.117	83.9838	870.117	84.5432	870.117	83.6917	870.117	84.4165	870.117	83.482	870.117	84.0348	870.117	83.3666	870.117	83.8169	870.117	82.8814	870.117	83.6013	870.117	81.5555	870.117	82.7498	870.117	79.93	870.117	81.2556	870.117	79.2777	870.117	79.8704	870.117	78.9464	870.117	78.7466	870.117	78.4068	870.117	77.8133	870.117	78.3875	870.117	77.9354	870.117	78.1087	870.117	78.4764	870.117	76.3143	870.117	77.9654	870.117	73.4652	870.117	75.8538	870.117	72.2549	870.117	72.8931	870.117	72.1823	870.117	71.0356	870.117	72.2272	870.117	71.721	870.117	72.4218
900.879	84.424	900.879	84.3274	900.879	84.2084	900.879	84.0752	900.879	83.9365	900.879	83.6457	900.879	83.7574	900.879	82.7618	900.879	83.3333	900.879	81.7165	900.879	82.709	900.879	81.0273	900.879	82.1389	900.879	80.0862	900.879	81.1562	900.879	78.2845	900.879	79.5678	900.879	77.5642	900.879	78.6211	900.879	79.3016	900.879	78.9615	900.879	80.0287	900.879	79.6331	900.879	78.959	900.879	79.663	900.879	76.9836	900.879	78.1983	900.879	74.5652	900.879	75.5407	900.879	71.8532	900.879	73.5452	900.879	72.4897	900.879	73.4643	900.879	74.3264	900.879	73.2587	900.879	74.013
933.105	84.384	933.105	84.2745	933.105	84.7391	933.105	84.1724	933.105	84.8171	933.105	83.9103	933.105	84.3979	933.105	83.5516	933.105	83.9662	933.105	82.7162	933.105	83.3505	933.105	81.2472	933.105	82.0508	933.105	79.6411	933.105	80.5861	933.105	78.8296	933.105	79.2302	933.105	78.7428	933.105	77.4058	933.105	78.0011	933.105	77.0011	933.105	77.4183	933.105	78.3951	933.105	78.0332	933.105	78.7748	933.105	77.705	933.105	78.1833	933.105	74.4284	933.105	76.7348	933.105	70.7817	933.105	73.9011	933.105	71.8955	933.105	71.7367	933.105	71.4408	933.105	73.4032	933.105	72.7683
965.332	84.4754	965.332	84.2619	965.332	83.9573	965.332	83.729	965.332	83.4721	965.332	83.2273	965.332	83.3954	965.332	82.414	965.332	82.9065	965.332	81.656	965.332	82.2504	965.332	81.2645	965.332	82.0456	965.332	80.2265	965.332	81.4736	965.332	78.0596	965.332	79.8287	965.332	76.0783	965.332	77.984	965.332	77.4109	965.332	76.6196	965.332	79.1318	965.332	76.2016	965.332	78.8165	965.332	77.2402	965.332	77.1566	965.332	77.1808	965.332	75.2946	965.332	75.2418	965.332	73.0818	965.332	72.9573	965.332	71.3672	965.332	71.2354	965.332	73.7811	965.332	71.9947	965.332	74.4842
1,000.49	84.0519	1,000.49	83.8544	1,000.49	84.1799	1,000.49	83.5679	1,000.49	83.9445	1,000.49	83.2251	1,000.49	83.2948	1,000.49	82.9467	1,000.49	82.8479	1,000.49	82.4928	1,000.49	82.5676	1,000.49	81.459	1,000.49	81.728	1,000.49	79.8069	1,000.49	80.4483	1,000.49	78.0614	1,000.49	79.2186	1,000.49	77.338	1,000.49	77.6066	1,000.49	77.3252	1,000.49	75.8176	1,000.49	77.6929	1,000.49	76.1394	1,000.49	77.5608	1,000.49	77.0436	1,000.49	76.3346	1,000.49	77.471	1,000.49	74.7612	1,000.49	76.5484	1,000.49	73.8508	1,000.49	73.1944	1,000.49	73.7151	1,000.49	72.103	1,000.49	73.7488	1,000.49	74.1623	1,000.49	74.2078
1,035.64	84.048	1,035.64	83.8215	1,035.64	84.0699	1,035.64	83.6634	1,035.64	83.7858	1,035.64	83.1644	1,035.64	83.3627	1,035.64	82.2868	1,035.64	82.6889	1,035.64	81.9376	1,035.64	82.0383	1,035.64	81.8083	1,035.64	81.764	1,035.64	80.77	1,035.64	81.2632	1,035.64	78.9021	1,035.64	79.7392	1,035.64	76.4601	1,035.64	77.4694	1,035.64	75.2464	1,035.64	76.2047	1,035.64	77.58	1,035.64	76.9247	1,035.64	78.8981	1,035.64	77.9898	1,035.64	77.2402	1,035.64	77.7118	1,035.64	73.8309	1,035.64	76.2829	1,035.64	71.1733	1,035.64	73.1033	1,035.64	69.6143	1,035.64	68.3457	1,035.64	70.6084	1,035.64	68.9079	1,035.64	70.9257
1,072.27	83.4581	1,072.27	82.9597	1,072.27	83.5654	1,072.27	82.3617	1,072.27	82.8546	1,072.27	81.6351	1,072.27	82.0419	1,072.27	81.1816	1,072.27	81.2469	1,072.27	80.6837	1,072.27	79.9745	1,072.27	80.3508	1,072.27	79.5345	1,072.27	79.7553	1,072.27	79.896	1,072.27	77.8477	1,072.27	79.4088	1,072.27	76.3388	1,072.27	77.5166	1,072.27	76.8468	1,072.27	75.5014	1,072.27	76.8858	1,072.27	76.1369	1,072.27	76.9985	1,072.27	76.6535	1,072.27	76.9451	1,072.27	76.0624	1,072.27	75.946	1,072.27	76.5794	1,072.27	74.4939	1,072.27	75.7851	1,072.27	73.8238	1,072.27	71.4829	1,072.27	73.6645	1,072.27	70.9993	1,072.27	72.8543
1,108.89	83.8435	1,108.89	83.8557	1,108.89	83.8557	1,108.89	83.3695	1,108.89	83.6652	1,108.89	82.3356	1,108.89	82.9817	1,108.89	81.3475	1,108.89	82.1459	1,108.89	80.2038	1,108.89	81.2728	1,108.89	78.892	1,108.89	80.0824	1,108.89	78.2854	1,108.89	78.7854	1,108.89	77.5916	1,108.89	78.0252	1,108.89	76.0408	1,108.89	77.3532	1,108.89	74.922	1,108.89	75.4739	1,108.89	75.0507	1,108.89	73.6131	1,108.89	75.9947	1,108.89	75.2096	1,108.89	75.9737	1,108.89	76.8083	1,108.89	73.9161	1,108.89	76.2742	1,108.89	71.8801	1,108.89	74.1525	1,108.89	71.4724	1,108.89	72.2517	1,108.89	72.1905	1,108.89	72.3314	1,108.89	73.0229
1,148.44	83.9718	1,148.44	83.4705	1,148.44	84.012	1,148.44	82.7768	1,148.44	83.1285	1,148.44	81.4558	1,148.44	82.6865	1,148.44	80.0968	1,148.44	82.1906	1,148.44	78.7778	1,148.44	80.4295	1,148.44	77.8145	1,148.44	79.2467	1,148.44	77.7502	1,148.44	78.5852	1,148.44	77.0051	1,148.44	77.4743	1,148.44	74.8373	1,148.44	76.8937	1,148.44	72.2571	1,148.44	74.7189	1,148.44	73.7548	1,148.44	72.752	1,148.44	75.1868	1,148.44	74.4042	1,148.44	74.3442	1,148.44	75.7176	1,148.44	72.4111	1,148.44	75.1719	1,148.44	69.9251	1,148.44	72.65	1,148.44	70.7555	1,148.44	70.2375	1,148.44	72.6235	1,148.44	70.0421	1,148.44	71.8399
1,189.45	84.5383	1,189.45	83.9517	1,189.45	84.7127	1,189.45	83.1567	1,189.45	84.3093	1,189.45	82.6052	1,189.45	83.5504	1,189.45	81.448	1,189.45	82.8892	1,189.45	79.3155	1,189.45	81.9009	1,189.45	78.9164	1,189.45	80.4043	1,189.45	78.7131	1,189.45	79.1404	1,189.45	76.2588	1,189.45	78.3518	1,189.45	75.2219	1,189.45	77.3052	1,189.45	75.2243	1,189.45	75.7146	1,189.45	74.5933	1,189.45	75.6076	1,189.45	75.7329	1,189.45	75.7202	1,189.45	75.5515	1,189.45	76.2055	1,189.45	72.6357	1,189.45	76.7382	1,189.45	68.8314	1,189.45	74.7826	1,189.45	68.9262	1,189.45	73.1089	1,189.45	69.5281	1,189.45	71.7779	1,189.45	68.5828
1,230.47	85.1965	1,230.47	84.8407	1,230.47	84.748	1,230.47	83.7956	1,230.47	84.7639	1,230.47	82.7732	1,230.47	84.3345	1,230.47	81.4977	1,230.47	83.0181	1,230.47	80.5742	1,230.47	81.6781	1,230.47	79.0913	1,230.47	80.0837	1,230.47	77.1244	1,230.47	79.1093	1,230.47	76.7759	1,230.47	78.4212	1,230.47	75.7606	1,230.47	77.1111	1,230.47	74.3095	1,230.47	75.188	1,230.47	74.7312	1,230.47	73.7101	1,230.47	74.94	1,230.47	75.5771	1,230.47	74.9377	1,230.47	76.0976	1,230.47	74.857	1,230.47	75.1336	1,230.47	71.3975	1,230.47	73.7116	1,230.47	69.7553	1,230.47	72.6269	1,230.47	74.5602	1,230.47	73.1587	1,230.47	74.9199
1,274.41	84.638	1,274.41	84.363	1,274.41	84.63	1,274.41	83.9499	1,274.41	84.2076	1,274.41	82.9703	1,274.41	83.6585	1,274.41	81.7769	1,274.41	83.1929	1,274.41	80.0847	1,274.41	82.1569	1,274.41	78.5294	1,274.41	80.4347	1,274.41	78.3074	1,274.41	79.7744	1,274.41	77.2836	1,274.41	79.1883	1,274.41	76.8641	1,274.41	78.1004	1,274.41	75.873	1,274.41	77.0484	1,274.41	74.5293	1,274.41	74.6242	1,274.41	76.1386	1,274.41	73.7788	1,274.41	75.798	1,274.41	75.4327	1,274.41	73.6684	1,274.41	76.1775	1,274.41	71.8664	1,274.41	74.4972	1,274.41	71.4791	1,274.41	72.6875	1,274.41	72.0912	1,274.41	72.5275	1,274.41	72.5791
1,319.82	84.2426	1,319.82	84.5537	1,319.82	84.594	1,319.82	84.1563	1,319.82	84.2301	1,319.82	82.8386	1,319.82	83.5746	1,319.82	82.0395	1,319.82	82.8931	1,319.82	80.5157	1,319.82	81.9508	1,319.82	78.5799	1,319.82	80.802	1,319.82	77.0884	1,319.82	78.7051	1,319.82	77.0278	1,319.82	77.4453	1,319.82	74.991	1,319.82	75.5843	1,319.82	72.1143	1,319.82	72.9707	1,319.82	75.1199	1,319.82	72.4468	1,319.82	76.473	1,319.82	73.7658	1,319.82	77.0431	1,319.82	75.5727	1,319.82	75.8927	1,319.82	75.2547	1,319.82	74.1894	1,319.82	75.186	1,319.82	72.3054	1,319.82	73.5754	1,319.82	73.9006	1,319.82	73.12	1,319.82	74.4114
1,366.7	84.2933	1,366.7	83.4893	1,366.7	83.9842	1,366.7	83.2877	1,366.7	83.7726	1,366.7	83.2074	1,366.7	83.1444	1,366.7	81.6792	1,366.7	82.0571	1,366.7	80.936	1,366.7	80.6309	1,366.7	79.4623	1,366.7	79.2618	1,366.7	76.9528	1,366.7	78.1862	1,366.7	76.0427	1,366.7	75.9498	1,366.7	73.898	1,366.7	75.0634	1,366.7	71.3461	1,366.7	74.759	1,366.7	71.5057	1,366.7	73.4627	1,366.7	72.6359	1,366.7	71.14	1,366.7	72.794	1,366.7	71.8944	1,366.7	73.587	1,366.7	73.2542	1,366.7	73.9672	1,366.7	71.767	1,366.7	72.4302	1,366.7	71.7709	1,366.7	73.4735	1,366.7	73.9213	1,366.7	75.5978
1,413.57	83.0305	1,413.57	83.0068	1,413.57	82.9193	1,413.57	82.5558	1,413.57	82.5101	1,413.57	81.3939	1,413.57	82.1671	1,413.57	81.0931	1,413.57	80.9513	1,413.57	80.0046	1,413.57	79.7041	1,413.57	78.0438	1,413.57	78.2768	1,413.57	77.0251	1,413.57	76.14	1,413.57	74.5309	1,413.57	75.0164	1,413.57	74.0264	1,413.57	73.6359	1,413.57	73.1056	1,413.57	73.2134	1,413.57	71.5851	1,413.57	71.8093	1,413.57	72.3695	1,413.57	70.8844	1,413.57	73.579	1,413.57	71.4094	1,413.57	73.0901	1,413.57	71.8461	1,413.57	70.8125	1,413.57	70.4231	1,413.57	73.3603	1,413.57	70.6338	1,413.57	72.7021	1,413.57	71.7918	1,413.57	71.5707
1,463.38	81.8151	1,463.38	81.743	1,463.38	81.6551	1,463.38	81.4102	1,463.38	80.9889	1,463.38	80.4855	1,463.38	80.4602	1,463.38	78.9656	1,463.38	79.5407	1,463.38	78.0619	1,463.38	77.5065	1,463.38	77.1715	1,463.38	76.9703	1,463.38	75.6824	1,463.38	75.2153	1,463.38	73.4196	1,463.38	73.9086	1,463.38	70.9486	1,463.38	74.5155	1,463.38	69.7993	1,463.38	71.3491	1,463.38	69.7048	1,463.38	67.7126	1,463.38	71.0642	1,463.38	66.615	1,463.38	68.8065	1,463.38	67.3464	1,463.38	70.8186	1,463.38	66.8528	1,463.38	70.5203	1,463.38	68.2642	1,463.38	71.772	1,463.38	68.8295	1,463.38	72.2612	1,463.38	71.783	1,463.38	71.6741
1,516.11	81.0701	1,516.11	80.6087	1,516.11	81.104	1,516.11	80.3086	1,516.11	80.4626	1,516.11	79.265	1,516.11	79.8956	1,516.11	78.4096	1,516.11	77.6628	1,516.11	76.2517	1,516.11	77.1891	1,516.11	74.4655	1,516.11	76.4694	1,516.11	74.8602	1,516.11	71.733	1,516.11	73.2008	1,516.11	71.4763	1,516.11	72.8597	1,516.11	67.6284	1,516.11	71.6376	1,516.11	69.891	1,516.11	69.0701	1,516.11	68.8526	1,516.11	66.8735	1,516.11	69.2699	1,516.11	72.4065	1,516.11	68.6606	1,516.11	66.3071	1,516.11	71.2937	1,516.11	68.5337	1,516.11	69.1732	1,516.11	69.051	1,516.11	64.226	1,516.11	72.1606	1,516.11	67.431	1,516.11	70.87
1,568.85	80.9947	1,568.85	80.8978	1,568.85	80.8987	1,568.85	80.1401	1,568.85	80.8553	1,568.85	78.6456	1,568.85	80.2199	1,568.85	77.5606	1,568.85	78.322	1,568.85	75.9309	1,568.85	77.5885	1,568.85	74.2767	1,568.85	75.5049	1,568.85	72.1201	1,568.85	74.2441	1,568.85	72.2001	1,568.85	72.8369	1,568.85	71.1329	1,568.85	71.1296	1,568.85	70.7789	1,568.85	69.7411	1,568.85	66.7846	1,568.85	67.8323	1,568.85	67.936	1,568.85	69.6549	1,568.85	69.5843	1,568.85	69.131	1,568.85	69.2437	1,568.85	70.6841	1,568.85	68.8946	1,568.85	66.4691	1,568.85	69.5633	1,568.85	66.7301	1,568.85	69.5289	1,568.85	67.4378	1,568.85	70.6738
1,624.51	81.1368	1,624.51	80.8754	1,624.51	80.5753	1,624.51	79.6072	1,624.51	80.8755	1,624.51	79.0163	1,624.51	80.2843	1,624.51	77.3692	1,624.51	79.656	1,624.51	74.6777	1,624.51	78.7503	1,624.51	75.059	1,624.51	76.1951	1,624.51	71.9802	1,624.51	75.5743	1,624.51	69.2104	1,624.51	71.465	1,624.51	71.6371	1,624.51	71.5889	1,624.51	69.9561	1,624.51	70.8506	1,624.51	68.4008	1,624.51	70.6321	1,624.51	66.0813	1,624.51	65.7793	1,624.51	66.1885	1,624.51	66.2891	1,624.51	65.3034	1,624.51	69.1954	1,624.51	61.3414	1,624.51	70.0309	1,624.51	64.2493	1,624.51	64.6022	1,624.51	69.8899	1,624.51	65.8734	1,624.51	69.491
1,681.64	82.1994	1,681.64	81.2071	1,681.64	82.5247	1,681.64	80.3029	1,681.64	81.5973	1,681.64	79.4125	1,681.64	80.5405	1,681.64	78.4119	1,681.64	79.812	1,681.64	77.0973	1,681.64	78.504	1,681.64	75.1151	1,681.64	78.0499	1,681.64	72.3609	1,681.64	74.1257	1,681.64	71.5518	1,681.64	74.1105	1,681.64	68.1192	1,681.64	72.6899	1,681.64	68.2761	1,681.64	69.5705	1,681.64	67.4434	1,681.64	67.6369	1,681.64	66.0998	1,681.64	68.3091	1,681.64	64.4478	1,681.64	67.5866	1,681.64	67.1764	1,681.64	67.4885	1,681.64	64.8074	1,681.64	69.4999	1,681.64	69.1634	1,681.64	65.6107	1,681.64	67.174	1,681.64	67.744	1,681.64	70.4963
1,741.7	83.5286	1,741.7	83.078	1,741.7	83.442	1,741.7	82.4698	1,741.7	82.4264	1,741.7	80.7995	1,741.7	82.3751	1,741.7	79.2606	1,741.7	80.4817	1,741.7	78.9113	1,741.7	79.0132	1,741.7	76.3709	1,741.7	77.6947	1,741.7	75.4217	1,741.7	76.2745	1,741.7	75.1662	1,741.7	75.1505	1,741.7	72.7915	1,741.7	71.9523	1,741.7	72.1286	1,741.7	68.8112	1,741.7	69.8117	1,741.7	70.9991	1,741.7	68.958	1,741.7	70.8607	1,741.7	70.4638	1,741.7	66.5194	1,741.7	69.548	1,741.7	68.8051	1,741.7	62.8066	1,741.7	67.7567	1,741.7	62.4052	1,741.7	68.7143	1,741.7	68.86	1,741.7	66.1929	1,741.7	69.4103
1,803.22	82.9691	1,803.22	83.1917	1,803.22	82.8298	1,803.22	81.5293	1,803.22	81.9639	1,803.22	80.1439	1,803.22	82.1138	1,803.22	79.4354	1,803.22	79.2367	1,803.22	78.0863	1,803.22	78.3167	1,803.22	76.8102	1,803.22	78.1191	1,803.22	75.5146	1,803.22	75.1374	1,803.22	71.1474	1,803.22	73.3279	1,803.22	71.5975	1,803.22	70.7591	1,803.22	65.39	1,803.22	68.5921	1,803.22	68.9614	1,803.22	65.9322	1,803.22	68.5107	1,803.22	68.2424	1,803.22	71.3299	1,803.22	64.2706	1,803.22	71.8023	1,803.22	68.8437	1,803.22	69.6179	1,803.22	68.7882	1,803.22	66.7468	1,803.22	64.7407	1,803.22	73.1018	1,803.22	68.3859	1,803.22	70.6759
1,866.21	82.4936	1,866.21	82.6058	1,866.21	82.873	1,866.21	82.0631	1,866.21	82.4369	1,866.21	80.1955	1,866.21	80.6771	1,866.21	78.7289	1,866.21	79.644	1,866.21	77.665	1,866.21	78.4547	1,866.21	76.9827	1,866.21	75.3696	1,866.21	76.4409	1,866.21	74.4057	1,866.21	73.7478	1,866.21	74.6342	1,866.21	74.6355	1,866.21	74.5094	1,866.21	72.3955	1,866.21	72.3236	1,866.21	68.9195	1,866.21	71.8204	1,866.21	67.5784	1,866.21	68.8659	1,866.21	68.9137	1,866.21	69.2127	1,866.21	68.4465	1,866.21	66.8877	1,866.21	65.6884	1,866.21	70.5368	1,866.21	70.9755	1,866.21	61.3326	1,866.21	70.2683	1,866.21	68.2562	1,866.21	66.1071
1,932.13	82.8859	1,932.13	82.0845	1,932.13	83.4837	1,932.13	80.925	1,932.13	82.5339	1,932.13	80.0588	1,932.13	80.8583	1,932.13	79.2849	1,932.13	79.2791	1,932.13	76.4924	1,932.13	76.6753	1,932.13	76.0119	1,932.13	75.2617	1,932.13	73.7414	1,932.13	72.7751	1,932.13	67.4175	1,932.13	68.9905	1,932.13	72.7394	1,932.13	73.1671	1,932.13	68.8867	1,932.13	74.1309	1,932.13	66.6902	1,932.13	68.0377	1,932.13	62.1357	1,932.13	70.8102	1,932.13	66.5006	1,932.13	69.2195	1,932.13	66.8399	1,932.13	67.8803	1,932.13	65.9698	1,932.13	71.7577	1,932.13	67.4443	1,932.13	55.0972	1,932.13	63.6299	1,932.13	65.3953	1,932.13	72.3494
1,999.51	82.7617	1,999.51	81.1991	1,999.51	82.9791	1,999.51	82.5539	1,999.51	82.3265	1,999.51	80.9833	1,999.51	81.2903	1,999.51	79.3611	1,999.51	81.3128	1,999.51	78.0909	1,999.51	79.1165	1,999.51	73.2907	1,999.51	77.3566	1,999.51	74.11	1,999.51	76.5665	1,999.51	74.1429	1,999.51	76.8567	1,999.51	71.6998	1,999.51	73.2168	1,999.51	72.9609	1,999.51	68.4978	1,999.51	67.6847	1,999.51	71.3853	1,999.51	61.2429	1,999.51	71.2255	1,999.51	69.5768	1,999.51	63.287	1,999.51	72.0419	1,999.51	69.0853	1,999.51	62.0746	1,999.51	70.6089	1,999.51	66.6631	1,999.51	64.9747	1,999.51	70.51	1,999.51	63.1172	1,999.51	66.2587
2,069.82	83.3355	2,069.82	82.0214	2,069.82	82.7591	2,069.82	81.5932	2,069.82	81.7898	2,069.82	81.108	2,069.82	82.682	2,069.82	78.8485	2,069.82	81.9462	2,069.82	79.1427	2,069.82	79.9566	2,069.82	76.2818	2,069.82	78.0422	2,069.82	75.6903	2,069.82	77.1747	2,069.82	71.4889	2,069.82	75.3333	2,069.82	70.8076	2,069.82	71.6637	2,069.82	70.726	2,069.82	71.8266	2,069.82	71.7671	2,069.82	66.3639	2,069.82	63.2631	2,069.82	65.143	2,069.82	69.0671	2,069.82	66.4156	2,069.82	65.0513	2,069.82	70.4887	2,069.82	67.8838	2,069.82	68.7557	2,069.82	61.968	2,069.82	69.3845	2,069.82	69.0799	2,069.82	62.658	2,069.82	65.3759
2,143.07	82.3563	2,143.07	82.2908	2,143.07	82.4875	2,143.07	81.1127	2,143.07	81.9433	2,143.07	80.5416	2,143.07	81.8078	2,143.07	80.1178	2,143.07	81.1741	2,143.07	79.47	2,143.07	80.3175	2,143.07	77.0555	2,143.07	77.7955	2,143.07	76.3667	2,143.07	76.2727	2,143.07	73.1678	2,143.07	73.3959	2,143.07	70.3801	2,143.07	71.8219	2,143.07	69.4063	2,143.07	72.7515	2,143.07	71.4204	2,143.07	70.0841	2,143.07	70.566	2,143.07	69.5495	2,143.07	61.0973	2,143.07	67.3686	2,143.07	62.5757	2,143.07	69.6382	2,143.07	68.913	2,143.07	68.3256	2,143.07	65.3284	2,143.07	68.06	2,143.07	64.2117	2,143.07	64.4736	2,143.07	64.9211
2,219.24	81.9621	2,219.24	80.8694	2,219.24	81.467	2,219.24	80.6277	2,219.24	80.9346	2,219.24	80.0219	2,219.24	80.8254	2,219.24	80.3045	2,219.24	79.0581	2,219.24	77.6334	2,219.24	78.1438	2,219.24	76.1495	2,219.24	78.1226	2,219.24	74.1407	2,219.24	76.0419	2,219.24	72.78	2,219.24	73.6092	2,219.24	70.4951	2,219.24	69.1533	2,219.24	69.6267	2,219.24	68.0265	2,219.24	73.0949	2,219.24	68.6729	2,219.24	71.6473	2,219.24	70.1954	2,219.24	65.5351	2,219.24	65.1869	2,219.24	69.3366	2,219.24	60.943	2,219.24	69.2611	2,219.24	64.5838	2,219.24	62.1568	2,219.24	64.6098	2,219.24	66.4551	2,219.24	67.0636	2,219.24	68.2557
2,296.88	81.3609	2,296.88	80.5359	2,296.88	80.7222	2,296.88	78.925	2,296.88	81.1355	2,296.88	78.8529	2,296.88	80.3237	2,296.88	78.7854	2,296.88	78.668	2,296.88	77.5914	2,296.88	76.6974	2,296.88	75.497	2,296.88	78.0785	2,296.88	74.1753	2,296.88	75.7425	2,296.88	71.7663	2,296.88	74.6544	2,296.88	70.8479	2,296.88	71.7053	2,296.88	71.4944	2,296.88	69.2962	2,296.88	69.2792	2,296.88	68.7694	2,296.88	66.8844	2,296.88	69.6247	2,296.88	67.0233	2,296.88	64.9889	2,296.88	68.4368	2,296.88	69.5232	2,296.88	67.416	2,296.88	70.4349	2,296.88	60.6837	2,296.88	71.5032	2,296.88	71.423	2,296.88	61.1687	2,296.88	65.8288
2,378.91	81.2268	2,378.91	81.1286	2,378.91	81.492	2,378.91	81.0308	2,378.91	82.3268	2,378.91	80.2309	2,378.91	81.6505	2,378.91	78.6352	2,378.91	81.0916	2,378.91	78.0119	2,378.91	80.2156	2,378.91	74.6553	2,378.91	79.3289	2,378.91	75.1079	2,378.91	77.2173	2,378.91	73.2576	2,378.91	76.5982	2,378.91	72.7064	2,378.91	74.2627	2,378.91	65.0995	2,378.91	71.2074	2,378.91	56.1819	2,378.91	70.0039	2,378.91	66.9696	2,378.91	71.7188	2,378.91	68.2241	2,378.91	69.6098	2,378.91	67.7342	2,378.91	67.4754	2,378.91	66.597	2,378.91	68.7614	2,378.91	63.95	2,378.91	70.1461	2,378.91	60.9981	2,378.91	68.4189	2,378.91	66.3854
2,462.4	82.4462	2,462.4	82.4526	2,462.4	82.8158	2,462.4	82.276	2,462.4	82.6412	2,462.4	81.5151	2,462.4	82.6989	2,462.4	80.6025	2,462.4	81.9439	2,462.4	79.6212	2,462.4	80.7548	2,462.4	77.614	2,462.4	79.7527	2,462.4	75.0041	2,462.4	77.8089	2,462.4	74.9399	2,462.4	76.7304	2,462.4	72.3131	2,462.4	75.1699	2,462.4	70.5485	2,462.4	71.9271	2,462.4	68.4237	2,462.4	70.7975	2,462.4	68.2799	2,462.4	69.4847	2,462.4	67.4724	2,462.4	69.777	2,462.4	65.2183	2,462.4	67.9626	2,462.4	68.5866	2,462.4	68.5211	2,462.4	65.3962	2,462.4	69.3212	2,462.4	65.1909	2,462.4	65.5204	2,462.4	66.5742
2,548.83	81.9758	2,548.83	82.2864	2,548.83	82.0788	2,548.83	82.0243	2,548.83	82.1672	2,548.83	81.8418	2,548.83	81.7301	2,548.83	81.0435	2,548.83	81.3002	2,548.83	79.9706	2,548.83	80.0065	2,548.83	79.0661	2,548.83	78.6393	2,548.83	77.2486	2,548.83	77.1029	2,548.83	75.4229	2,548.83	75.2821	2,548.83	72.9981	2,548.83	74.0861	2,548.83	71.0694	2,548.83	70.6734	2,548.83	69.0542	2,548.83	70.1605	2,548.83	69.9802	2,548.83	69.1268	2,548.83	69.3367	2,548.83	68.5811	2,548.83	66.2904	2,548.83	67.0149	2,548.83	68.0458	2,548.83	67.7316	2,548.83	65.5632	2,548.83	68.3097	2,548.83	67.6068	2,548.83	63.1947	2,548.83	65.917
2,639.65	81.1636	2,639.65	81.3632	2,639.65	80.7683	2,639.65	80.9939	2,639.65	81.1261	2,639.65	81.2095	2,639.65	80.7585	2,639.65	80.1217	2,639.65	80.3854	2,639.65	78.329	2,639.65	79.312	2,639.65	77.1083	2,639.65	77.9658	2,639.65	76.0432	2,639.65	76.3969	2,639.65	72.7623	2,639.65	74.6829	2,639.65	72.3572	2,639.65	71.6511	2,639.65	70.569	2,639.65	70.4039	2,639.65	66.7372	2,639.65	69.1763	2,639.65	69.099	2,639.65	66.7162	2,639.65	69.5017	2,639.65	68.5037	2,639.65	66.8637	2,639.65	68.1782	2,639.65	68.5065	2,639.65	66.1737	2,639.65	65.7528	2,639.65	68.0039	2,639.65	66.0135	2,639.65	63.8616	2,639.65	63.8392
2,731.93	80.5717	2,731.93	80.0592	2,731.93	80.7546	2,731.93	80.4183	2,731.93	80.4217	2,731.93	79.8923	2,731.93	80.4416	2,731.93	79.1807	2,731.93	80.0209	2,731.93	77.1264	2,731.93	79.4044	2,731.93	75.781	2,731.93	78.1688	2,731.93	72.977	2,731.93	76.326	2,731.93	70.5494	2,731.93	74.4053	2,731.93	69.8568	2,731.93	72.6117	2,731.93	67.7887	2,731.93	70.9271	2,731.93	66.9807	2,731.93	67.8502	2,731.93	66.7669	2,731.93	67.0878	2,731.93	68.0858	2,731.93	67.1246	2,731.93	66.7427	2,731.93	67.429	2,731.93	65.7261	2,731.93	66.4003	2,731.93	62.4295	2,731.93	68.0729	2,731.93	63.0166	2,731.93	64.3058	2,731.93	65.0905
2,828.61	80.7589	2,828.61	80.7617	2,828.61	81.3665	2,828.61	80.6819	2,828.61	81.1334	2,828.61	79.821	2,828.61	81.2093	2,828.61	79.1032	2,828.61	80.5689	2,828.61	78.2863	2,828.61	79.9209	2,828.61	75.8258	2,828.61	78.2457	2,828.61	73.247	2,828.61	76.4156	2,828.61	72.2522	2,828.61	74.4125	2,828.61	69.094	2,828.61	72.9023	2,828.61	67.1322	2,828.61	70.3244	2,828.61	67.4051	2,828.61	66.9441	2,828.61	63.6483	2,828.61	66.4898	2,828.61	67.446	2,828.61	66.2974	2,828.61	65.6441	2,828.61	67.8382	2,828.61	67.9919	2,828.61	66.0729	2,828.61	63.8715	2,828.61	67.5189	2,828.61	63.4911	2,828.61	64.6868	2,828.61	66.4452
2,928.22	81.4854	2,928.22	81.6928	2,928.22	81.7593	2,928.22	81.298	2,928.22	81.8029	2,928.22	80.7169	2,928.22	81.6642	2,928.22	79.7135	2,928.22	81.0701	2,928.22	78.3209	2,928.22	79.6974	2,928.22	76.2036	2,928.22	78.1082	2,928.22	74.1993	2,928.22	76.0961	2,928.22	72.6629	2,928.22	73.4947	2,928.22	69.4406	2,928.22	71.2681	2,928.22	66.4834	2,928.22	69.6813	2,928.22	67.092	2,928.22	68.1536	2,928.22	63.2817	2,928.22	67.7168	2,928.22	65.4585	2,928.22	63.5265	2,928.22	65.1636	2,928.22	68.2247	2,928.22	66.8334	2,928.22	65.8733	2,928.22	63.3463	2,928.22	68.0052	2,928.22	63.2335	2,928.22	64.74	2,928.22	65.2638
3,030.76	81.4406	3,030.76	81.8007	3,030.76	81.1746	3,030.76	81.4431	3,030.76	81.7378	3,030.76	81.0664	3,030.76	81.401	3,030.76	80.0469	3,030.76	81.004	3,030.76	78.4588	3,030.76	79.5312	3,030.76	76.038	3,030.76	77.5151	3,030.76	74.6724	3,030.76	75.3132	3,030.76	70.9805	3,030.76	73.7636	3,030.76	69.0838	3,030.76	71.9251	3,030.76	66.6599	3,030.76	69.5582	3,030.76	65.629	3,030.76	67.8584	3,030.76	64.2066	3,030.76	67.3579	3,030.76	66.3521	3,030.76	63.7334	3,030.76	66.537	3,030.76	67.1269	3,030.76	68.4339	3,030.76	65.7051	3,030.76	65.5482	3,030.76	67.9968	3,030.76	66.4922	3,030.76	64.1385	3,030.76	65.8797
3,137.7	81.2041	3,137.7	81.417	3,137.7	80.8271	3,137.7	81.5181	3,137.7	81.0631	3,137.7	81.266	3,137.7	80.9029	3,137.7	80.0239	3,137.7	80.4037	3,137.7	77.549	3,137.7	79.1919	3,137.7	76.0799	3,137.7	77.919	3,137.7	74.3955	3,137.7	75.5079	3,137.7	71.6679	3,137.7	73.8278	3,137.7	68.6222	3,137.7	71.6289	3,137.7	66.431	3,137.7	69.4375	3,137.7	65.0989	3,137.7	67.1228	3,137.7	63.931	3,137.7	66.212	3,137.7	65.6091	3,137.7	64.7243	3,137.7	65.3441	3,137.7	66.5802	3,137.7	67.1426	3,137.7	65.8247	3,137.7	66.6414	3,137.7	66.7918	3,137.7	64.0604	3,137.7	63.9103	3,137.7	64.2973
3,249.02	80.8168	3,249.02	80.8019	3,249.02	80.4208	3,249.02	80.9713	3,249.02	80.9594	3,249.02	80.6807	3,249.02	81.3364	3,249.02	79.416	3,249.02	81.0448	3,249.02	77.6604	3,249.02	79.9225	3,249.02	75.5827	3,249.02	78.0974	3,249.02	73.2211	3,249.02	75.6606	3,249.02	71.1286	3,249.02	73.1467	3,249.02	68.6418	3,249.02	70.8333	3,249.02	68.4734	3,249.02	69.1321	3,249.02	65.158	3,249.02	68.3234	3,249.02	64.3519	3,249.02	66.2324	3,249.02	64.5778	3,249.02	63.6231	3,249.02	66.2444	3,249.02	66.0143	3,249.02	67.076	3,249.02	66.5356	3,249.02	65.3916	3,249.02	66.8551	3,249.02	62.5898	3,249.02	63.8782	3,249.02	62.3139
3,363.28	80.2468	3,363.28	80.6723	3,363.28	80.7444	3,363.28	81.2285	3,363.28	80.8142	3,363.28	81.3897	3,363.28	81.3125	3,363.28	79.6132	3,363.28	80.6254	3,363.28	77.4264	3,363.28	79.7552	3,363.28	75.2127	3,363.28	77.9503	3,363.28	72.2823	3,363.28	76.1183	3,363.28	70.7521	3,363.28	73.2682	3,363.28	68.8728	3,363.28	70.2442	3,363.28	67.2091	3,363.28	67.995	3,363.28	65.4761	3,363.28	67.0878	3,363.28	65.6352	3,363.28	64.6342	3,363.28	64.3946	3,363.28	62.8766	3,363.28	66.5398	3,363.28	64.1138	3,363.28	66.4512	3,363.28	64.9482	3,363.28	64.9668	3,363.28	66.3061	3,363.28	64.3321	3,363.28	63.2079	3,363.28	65.9254
3,481.93	80.3202	3,481.93	81.0785	3,481.93	80.3567	3,481.93	81.5351	3,481.93	80.9802	3,481.93	81.4951	3,481.93	81.5218	3,481.93	80.1354	3,481.93	81.3569	3,481.93	78.929	3,481.93	80.2403	3,481.93	76.3224	3,481.93	77.462	3,481.93	73.7142	3,481.93	75.682	3,481.93	71.6721	3,481.93	73.7013	3,481.93	70.2089	3,481.93	71.7107	3,481.93	68.3708	3,481.93	68.775	3,481.93	65.1416	3,481.93	66.7643	3,481.93	65.6622	3,481.93	64.5679	3,481.93	65.3773	3,481.93	65.7911	3,481.93	67.3471	3,481.93	63.4142	3,481.93	65.0728	3,481.93	66.0502	3,481.93	65.2419	3,481.93	65.7891	3,481.93	64.3802	3,481.93	63.3267	3,481.93	65.4348
3,604.98	81.0114	3,604.98	81.7776	3,604.98	81.2024	3,604.98	82.2999	3,604.98	82.2188	3,604.98	81.8468	3,604.98	82.6499	3,604.98	80.4293	3,604.98	82.4527	3,604.98	79.117	3,604.98	80.8517	3,604.98	76.8773	3,604.98	78.7563	3,604.98	74.3783	3,604.98	76.6415	3,604.98	71.8857	3,604.98	74.4986	3,604.98	70.6867	3,604.98	72.3425	3,604.98	68.8688	3,604.98	70.4849	3,604.98	65.2021	3,604.98	67.9104	3,604.98	66.073	3,604.98	66.9516	3,604.98	62.2851	3,604.98	67.2934	3,604.98	66.9633	3,604.98	63.8707	3,604.98	66.0347	3,604.98	67.9835	3,604.98	66.8645	3,604.98	67.5223	3,604.98	64.1458	3,604.98	65.6533	3,604.98	65.2057
3,732.42	81.3976	3,732.42	82.86	3,732.42	81.0912	3,732.42	83.2244	3,732.42	82.7957	3,732.42	82.3393	3,732.42	83.0241	3,732.42	82.001	3,732.42	82.3724	3,732.42	79.6031	3,732.42	80.398	3,732.42	77.2789	3,732.42	78.1813	3,732.42	75.3203	3,732.42	76.4006	3,732.42	72.541	3,732.42	73.6245	3,732.42	71.2343	3,732.42	72.0389	3,732.42	67.3726	3,732.42	70.3111	3,732.42	66.8474	3,732.42	67.4701	3,732.42	66.5465	3,732.42	66.0282	3,732.42	62.2672	3,732.42	65.1129	3,732.42	67.5394	3,732.42	62.1286	3,732.42	66.7345	3,732.42	67.0416	3,732.42	66.6616	3,732.42	66.9444	3,732.42	63.283	3,732.42	65.3373	3,732.42	64.4911
3,864.26	81.3984	3,864.26	82.2178	3,864.26	81.4228	3,864.26	82.6244	3,864.26	81.6662	3,864.26	82.1624	3,864.26	81.8598	3,864.26	80.5734	3,864.26	80.95	3,864.26	77.8939	3,864.26	78.9542	3,864.26	76.1388	3,864.26	77.8873	3,864.26	74.5755	3,864.26	75.6485	3,864.26	72.3179	3,864.26	72.2936	3,864.26	70.0255	3,864.26	71.2167	3,864.26	68.7276	3,864.26	69.3655	3,864.26	66.8744	3,864.26	66.9902	3,864.26	66.9986	3,864.26	65.5686	3,864.26	61.7402	3,864.26	67.5308	3,864.26	66.7398	3,864.26	61.518	3,864.26	64.7911	3,864.26	63.6331	3,864.26	66.0358	3,864.26	65.6306	3,864.26	61.1721	3,864.26	64.9988	3,864.26	61.318
4,000.49	82.4807	4,000.49	82.1235	4,000.49	83.1123	4,000.49	82.7163	4,000.49	82.4054	4,000.49	81.8989	4,000.49	82.5193	4,000.49	79.041	4,000.49	81.243	4,000.49	77.5843	4,000.49	79.7008	4,000.49	76.0243	4,000.49	78.2259	4,000.49	74.0788	4,000.49	75.9999	4,000.49	71.5413	4,000.49	73.9713	4,000.49	70.0136	4,000.49	72.7899	4,000.49	68.0622	4,000.49	70.1772	4,000.49	65.8184	4,000.49	68.2709	4,000.49	65.9042	4,000.49	66.6215	4,000.49	64.8753	4,000.49	65.7666	4,000.49	64.3492	4,000.49	63.6227	4,000.49	64.8904	4,000.49	67.4242	4,000.49	65.9203	4,000.49	66.5493	4,000.49	61.7948	4,000.49	65.7148	4,000.49	62.8557
4,141.11	82.6054	4,141.11	83.0809	4,141.11	82.4098	4,141.11	82.7514	4,141.11	83.1987	4,141.11	81.8437	4,141.11	82.7096	4,141.11	80.5983	4,141.11	82.2398	4,141.11	79.1459	4,141.11	80.5332	4,141.11	77.4172	4,141.11	77.9869	4,141.11	75.0983	4,141.11	75.3486	4,141.11	73.3242	4,141.11	74.6675	4,141.11	69.8764	4,141.11	73.0108	4,141.11	67.8933	4,141.11	69.7297	4,141.11	66.689	4,141.11	68.6185	4,141.11	65.9449	4,141.11	66.1675	4,141.11	64.1611	4,141.11	64.8826	4,141.11	65.3272	4,141.11	64.0851	4,141.11	65.4921	4,141.11	66.9394	4,141.11	67.1762	4,141.11	64.3459	4,141.11	62.8204	4,141.11	66.4364	4,141.11	64.5341
4,287.6	82.7707	4,287.6	83.3845	4,287.6	82.9053	4,287.6	82.1845	4,287.6	83.459	4,287.6	81.6888	4,287.6	83.1582	4,287.6	80.9612	4,287.6	81.9397	4,287.6	78.9581	4,287.6	80.6499	4,287.6	76.9976	4,287.6	78.4321	4,287.6	74.9434	4,287.6	76.5137	4,287.6	72.9818	4,287.6	75.3715	4,287.6	71.3184	4,287.6	72.1208	4,287.6	70.5959	4,287.6	70.8367	4,287.6	67.8525	4,287.6	68.3367	4,287.6	65.0348	4,287.6	67.8002	4,287.6	65.8302	4,287.6	64.8031	4,287.6	65.0834	4,287.6	64.3944	4,287.6	64.0579	4,287.6	65.504	4,287.6	67.6214	4,287.6	65.1975	4,287.6	59.6435	4,287.6	65.3602	4,287.6	62.9957
4,438.48	83.8999	4,438.48	83.3132	4,438.48	83.9006	4,438.48	83.6398	4,438.48	83.0633	4,438.48	82.2538	4,438.48	83.1595	4,438.48	81.2363	4,438.48	81.0857	4,438.48	79.7779	4,438.48	78.9102	4,438.48	77.4955	4,438.48	78.4772	4,438.48	74.8648	4,438.48	76.732	4,438.48	73.5388	4,438.48	73.9378	4,438.48	70.6758	4,438.48	71.7998	4,438.48	70.6418	4,438.48	69.6111	4,438.48	65.5979	4,438.48	67.7497	4,438.48	64.2674	4,438.48	64.7191	4,438.48	63.327	4,438.48	64.8593	4,438.48	64.5936	4,438.48	63.1867	4,438.48	64.5526	4,438.48	65.4779	4,438.48	66.3255	4,438.48	66.8512	4,438.48	56.7434	4,438.48	64.661	4,438.48	60.8283
4,595.21	83.0337	4,595.21	82.7482	4,595.21	82.6101	4,595.21	82.0319	4,595.21	82.5664	4,595.21	80.8333	4,595.21	80.9705	4,595.21	79.2471	4,595.21	80.8007	4,595.21	77.6214	4,595.21	80.3705	4,595.21	77.4395	4,595.21	78.0427	4,595.21	76.2544	4,595.21	76.0054	4,595.21	73.3469	4,595.21	74.5164	4,595.21	70.3281	4,595.21	70.4431	4,595.21	65.7477	4,595.21	69.6189	4,595.21	66.7422	4,595.21	67.3122	4,595.21	65.8486	4,595.21	65.1856	4,595.21	64.9622	4,595.21	64.8885	4,595.21	65.0288	4,595.21	63.6084	4,595.21	66.8568	4,595.21	64.3204	4,595.21	67.5253	4,595.21	63.5644	4,595.21	59.4262	4,595.21	67.1503	4,595.21	61.2478
4,756.35	83.4884	4,756.35	83.331	4,756.35	84.1154	4,756.35	81.1888	4,756.35	83.5926	4,756.35	80.8161	4,756.35	82.3395	4,756.35	80.1649	4,756.35	81.4563	4,756.35	79.1572	4,756.35	80.8741	4,756.35	76.7632	4,756.35	79.7256	4,756.35	75.0148	4,756.35	77.5328	4,756.35	71.6624	4,756.35	74.6458	4,756.35	70.9501	4,756.35	72.2423	4,756.35	67.2633	4,756.35	70.8796	4,756.35	66.9065	4,756.35	69.2236	4,756.35	64.4676	4,756.35	65.4638	4,756.35	66.1515	4,756.35	65.0241	4,756.35	59.9994	4,756.35	63.2365	4,756.35	64.1728	4,756.35	63.2054	4,756.35	66.5582	4,756.35	66.4708	4,756.35	56.3132	4,756.35	68.2647	4,756.35	60.4214
4,924.8	83.8458	4,924.8	82.8993	4,924.8	84.1082	4,924.8	82.6855	4,924.8	82.3767	4,924.8	81.4663	4,924.8	81.8402	4,924.8	81.8616	4,924.8	80.3523	4,924.8	80.6787	4,924.8	79.5358	4,924.8	78.7392	4,924.8	78.7401	4,924.8	75.1001	4,924.8	77.7518	4,924.8	73.3022	4,924.8	74.2773	4,924.8	69.6039	4,924.8	72.1577	4,924.8	69.2653	4,924.8	69.5634	4,924.8	65.1238	4,924.8	67.954	4,924.8	64.2205	4,924.8	65.0861	4,924.8	65.1393	4,924.8	65.3285	4,924.8	64.5951	4,924.8	64.5985	4,924.8	65.4042	4,924.8	64.5829	4,924.8	66.7166	4,924.8	67.8645	4,924.8	61.041	4,924.8	67.2029	4,924.8	59.9483
5,097.66	83.1807	5,097.66	81.8151	5,097.66	82.5877	5,097.66	80.3783	5,097.66	81.9283	5,097.66	80.7169	5,097.66	79.7981	5,097.66	79.7715	5,097.66	80.5123	5,097.66	78.8458	5,097.66	80.8202	5,097.66	76.0238	5,097.66	79.1571	5,097.66	74.0238	5,097.66	76.9944	5,097.66	71.6869	5,097.66	76.1436	5,097.66	68.7393	5,097.66	72.2899	5,097.66	66.952	5,097.66	69.6452	5,097.66	66.5439	5,097.66	66.7074	5,097.66	66.8113	5,097.66	65.8014	5,097.66	66.1726	5,097.66	65.6093	5,097.66	61.9327	5,097.66	64.4893	5,097.66	66.4682	5,097.66	64.4934	5,097.66	68.0453	5,097.66	66.197	5,097.66	59.6197	5,097.66	67.66	5,097.66	59.0795
5,277.83	83.0035	5,277.83	81.9136	5,277.83	82.8472	5,277.83	80.3573	5,277.83	80.717	5,277.83	80.2785	5,277.83	80.4899	5,277.83	80.5824	5,277.83	80.3391	5,277.83	79.8367	5,277.83	80.392	5,277.83	77.6228	5,277.83	79.7252	5,277.83	74.8232	5,277.83	78.1153	5,277.83	71.2686	5,277.83	73.6798	5,277.83	70.1038	5,277.83	72.3182	5,277.83	65.5443	5,277.83	68.9883	5,277.83	65.5011	5,277.83	67.5541	5,277.83	63.7631	5,277.83	63.8883	5,277.83	67.1993	5,277.83	65.3325	5,277.83	60.9289	5,277.83	64.5365	5,277.83	63.0133	5,277.83	60.1795	5,277.83	65.1738	5,277.83	66.26	5,277.83	56.7079	5,277.83	66.7019	5,277.83	60.7957
5,463.87	82.8905	5,463.87	81.1699	5,463.87	82.9586	5,463.87	80.4934	5,463.87	80.9633	5,463.87	80.9438	5,463.87	80.9017	5,463.87	81.6913	5,463.87	81.1022	5,463.87	79.9163	5,463.87	80.8367	5,463.87	78.5662	5,463.87	79.2258	5,463.87	73.7579	5,463.87	76.2193	5,463.87	74.2901	5,463.87	74.9429	5,463.87	70.5568	5,463.87	72.8863	5,463.87	71.2625	5,463.87	71.1187	5,463.87	68.5878	5,463.87	66.5194	5,463.87	65.5325	5,463.87	65.489	5,463.87	69.4206	5,463.87	62.8291	5,463.87	66.9576	5,463.87	65.1759	5,463.87	65.3048	5,463.87	63.9597	5,463.87	68.128	5,463.87	67.1913	5,463.87	62.6148	5,463.87	69.1745	5,463.87	59.7341
5,657.23	83.0859	5,657.23	81.4715	5,657.23	82.2101	5,657.23	80.3787	5,657.23	81.1027	5,657.23	81.9608	5,657.23	79.6915	5,657.23	81.612	5,657.23	81.5716	5,657.23	80.1172	5,657.23	81.2254	5,657.23	78.4459	5,657.23	78.912	5,657.23	76.3316	5,657.23	77.8002	5,657.23	73.9923	5,657.23	75.7166	5,657.23	71.1367	5,657.23	72.2732	5,657.23	68.2112	5,657.23	70.9266	5,657.23	66.5722	5,657.23	69.3131	5,657.23	65.2179	5,657.23	65.5274	5,657.23	65.6116	5,657.23	61.3742	5,657.23	63.0677	5,657.23	60.0994	5,657.23	63.6728	5,657.23	60.43	5,657.23	67.8365	5,657.23	67.2754	5,657.23	56.0355	5,657.23	67.1928	5,657.23	55.9904
5,856.45	82.5643	5,856.45	80.7182	5,856.45	83.0057	5,856.45	80.2175	5,856.45	80.7447	5,856.45	81.1611	5,856.45	81.501	5,856.45	80.6798	5,856.45	81.31	5,856.45	79.6513	5,856.45	80.5323	5,856.45	77.8238	5,856.45	79.9336	5,856.45	78.1731	5,856.45	78.4254	5,856.45	74.9419	5,856.45	75.4813	5,856.45	73.1883	5,856.45	72.9106	5,856.45	67.8138	5,856.45	72.2594	5,856.45	66.8423	5,856.45	69.3707	5,856.45	62.3022	5,856.45	66.1036	5,856.45	66.8177	5,856.45	60.9773	5,856.45	64.6981	5,856.45	59.1833	5,856.45	66.7788	5,856.45	61.1784	5,856.45	65.899	5,856.45	65.5317	5,856.45	59.7853	5,856.45	68.0455	5,856.45	52.6069
6,062.99	83.2954	6,062.99	81.5302	6,062.99	82.5213	6,062.99	81.3854	6,062.99	81.3225	6,062.99	81.7082	6,062.99	80.4147	6,062.99	81.4624	6,062.99	82.3036	6,062.99	80.1274	6,062.99	81.7991	6,062.99	78.943	6,062.99	79.752	6,062.99	75.3946	6,062.99	77.7582	6,062.99	74.5583	6,062.99	76.8459	6,062.99	72.0491	6,062.99	73.8426	6,062.99	67.5521	6,062.99	71.8771	6,062.99	65.5784	6,062.99	69.522	6,062.99	65.1298	6,062.99	67.9767	6,062.99	61.475	6,062.99	65.7923	6,062.99	62.6254	6,062.99	62.8785	6,062.99	66.7689	6,062.99	61.1174	6,062.99	66.475	6,062.99	65.2499	6,062.99	60.0396	6,062.99	67.69	6,062.99	53.8355
6,276.86	81.5829	6,276.86	79.9772	6,276.86	81.5243	6,276.86	79.9562	6,276.86	79.9608	6,276.86	80.4911	6,276.86	79.9351	6,276.86	80.2746	6,276.86	79.9917	6,276.86	80.5515	6,276.86	81.0823	6,276.86	79.1641	6,276.86	81.2219	6,276.86	77.1052	6,276.86	80.4905	6,276.86	74.5865	6,276.86	77.1065	6,276.86	72.2398	6,276.86	73.2824	6,276.86	68.6109	6,276.86	70.6676	6,276.86	67.7356	6,276.86	69.2415	6,276.86	63.6659	6,276.86	66.1636	6,276.86	61.0495	6,276.86	62.94	6,276.86	59.3469	6,276.86	60.5563	6,276.86	65.2114	6,276.86	61.0276	6,276.86	65.7194	6,276.86	64.8281	6,276.86	58.2468	6,276.86	67.5281	6,276.86	50.1808
6,498.05	80.0124	6,498.05	79.3773	6,498.05	79.9609	6,498.05	80.2114	6,498.05	80.0254	6,498.05	80.3878	6,498.05	80.4412	6,498.05	81.5986	6,498.05	81.0201	6,498.05	81.3273	6,498.05	81.2584	6,498.05	79.8864	6,498.05	81.7023	6,498.05	77.4844	6,498.05	80.3738	6,498.05	74.1705	6,498.05	77.6374	6,498.05	71.4176	6,498.05	75.0919	6,498.05	67.282	6,498.05	71.0147	6,498.05	64.3869	6,498.05	68.8247	6,498.05	63.8587	6,498.05	67.3022	6,498.05	63.7557	6,498.05	66.9605	6,498.05	61.9481	6,498.05	62.8883	6,498.05	64.7701	6,498.05	59.2846	6,498.05	65.2997	6,498.05	64.9007	6,498.05	60.3719	6,498.05	66.7003	6,498.05	55.1583
6,726.56	77.2471	6,726.56	79.1438	6,726.56	77.6907	6,726.56	80.1009	6,726.56	79.5128	6,726.56	80.745	6,726.56	79.6227	6,726.56	82.1027	6,726.56	80.513	6,726.56	81.7346	6,726.56	82.2795	6,726.56	80.8822	6,726.56	81.7105	6,726.56	78.044	6,726.56	79.9397	6,726.56	74.2263	6,726.56	77.2393	6,726.56	70.3346	6,726.56	75.0872	6,726.56	68.2251	6,726.56	70.6001	6,726.56	62.592	6,726.56	67.7915	6,726.56	62.9448	6,726.56	67.84	6,726.56	61.9755	6,726.56	64.2831	6,726.56	62.767	6,726.56	61.6243	6,726.56	66.1278	6,726.56	59.3116	6,726.56	65.4625	6,726.56	66.6027	6,726.56	58.7266	6,726.56	67.3614	6,726.56	56.056
6,963.87	77.6014	6,963.87	80.1058	6,963.87	78.7875	6,963.87	80.6572	6,963.87	80.1769	6,963.87	81.4195	6,963.87	81.0724	6,963.87	82.3641	6,963.87	81.6358	6,963.87	82.3532	6,963.87	81.8802	6,963.87	78.4226	6,963.87	81.4069	6,963.87	75.5402	6,963.87	78.8574	6,963.87	72.2503	6,963.87	76.4862	6,963.87	69.6092	6,963.87	73.2963	6,963.87	66.2223	6,963.87	70.1025	6,963.87	65.4605	6,963.87	68.0683	6,963.87	63.6235	6,963.87	63.1617	6,963.87	58.1395	6,963.87	61.6894	6,963.87	60.2033	6,963.87	55.2852	6,963.87	63.1679	6,963.87	58.1179	6,963.87	63.4393	6,963.87	65.921	6,963.87	54.5726	6,963.87	64.5708	6,963.87	50.5874
7,209.96	81.3298	7,209.96	81.9682	7,209.96	81.0454	7,209.96	81.8579	7,209.96	82.394	7,209.96	82.5333	7,209.96	82.1373	7,209.96	82.8335	7,209.96	83.0984	7,209.96	80.976	7,209.96	83.0905	7,209.96	78.7894	7,209.96	80.8767	7,209.96	75.4452	7,209.96	77.3433	7,209.96	72.916	7,209.96	75.8714	7,209.96	69.3256	7,209.96	72.306	7,209.96	66.8322	7,209.96	70.5382	7,209.96	63.8044	7,209.96	66.0704	7,209.96	59.2382	7,209.96	65.3163	7,209.96	58.5818	7,209.96	60.788	7,209.96	53.9566	7,209.96	49.3206	7,209.96	62.0865	7,209.96	56.4849	7,209.96	62.546	7,209.96	63.7635	7,209.96	57.6506	7,209.96	63.6407	7,209.96	54.7024
7,464.84	81.833	7,464.84	82.8593	7,464.84	81.9496	7,464.84	82.6998	7,464.84	82.759	7,464.84	82.64	7,464.84	82.2712	7,464.84	82.1893	7,464.84	81.5276	7,464.84	80.3384	7,464.84	81.4431	7,464.84	78.3859	7,464.84	79.3905	7,464.84	73.4621	7,464.84	76.8464	7,464.84	72.6708	7,464.84	73.616	7,464.84	67.103	7,464.84	69.1589	7,464.84	66.2456	7,464.84	68.3228	7,464.84	64.4337	7,464.84	64.8775	7,464.84	59.4537	7,464.84	58.4431	7,464.84	47.8285	7,464.84	62.5008	7,464.84	53.2269	7,464.84	58.7516	7,464.84	59.522	7,464.84	51.2242	7,464.84	59.2638	7,464.84	63.593	7,464.84	51.3758	7,464.84	60.2798	7,464.84	56.7153
7,727.05	82.6297	7,727.05	84.1139	7,727.05	82.4905	7,727.05	83.3634	7,727.05	83.7573	7,727.05	82.128	7,727.05	82.8494	7,727.05	82.1844	7,727.05	82.2763	7,727.05	80.0855	7,727.05	81.8939	7,727.05	77.5727	7,727.05	80.4226	7,727.05	74.0175	7,727.05	77.5671	7,727.05	71.784	7,727.05	73.956	7,727.05	68.5808	7,727.05	69.3322	7,727.05	65.8081	7,727.05	66.2634	7,727.05	64.8767	7,727.05	63.4548	7,727.05	63.4464	7,727.05	60.0905	7,727.05	58.2055	7,727.05	57.9665	7,727.05	48.7524	7,727.05	59.7679	7,727.05	58.7686	7,727.05	55.5871	7,727.05	56.9113	7,727.05	60.9815	7,727.05	49.9459	7,727.05	61.706	7,727.05	54.7799
7,999.51	82.632	7,999.51	83.3892	7,999.51	82.6257	7,999.51	82.8612	7,999.51	83.8915	7,999.51	81.234	7,999.51	82.3319	7,999.51	80.6276	7,999.51	81.4259	7,999.51	78.9417	7,999.51	80.5278	7,999.51	76.6275	7,999.51	78.922	7,999.51	73.5876	7,999.51	76.6205	7,999.51	69.9847	7,999.51	71.895	7,999.51	67.3334	7,999.51	69.1327	7,999.51	63.2865	7,999.51	66.1123	7,999.51	62.9541	7,999.51	63.5803	7,999.51	60.2866	7,999.51	60.0332	7,999.51	57.8261	7,999.51	56.5136	7,999.51	51.5797	7,999.51	55.7996	7,999.51	58.3138	7,999.51	51.376	7,999.51	58.4513	7,999.51	59.5357	7,999.51	49.6217	7,999.51	61.7276	7,999.51	52.9107
8,282.23	82.2558	8,282.23	82.6305	8,282.23	82.4314	8,282.23	82.04	8,282.23	83.0196	8,282.23	80.8854	8,282.23	82.7627	8,282.23	79.9134	8,282.23	81.9818	8,282.23	78.8512	8,282.23	80.9741	8,282.23	75.1811	8,282.23	78.589	8,282.23	72.986	8,282.23	76.1584	8,282.23	67.7859	8,282.23	72.6994	8,282.23	66.4871	8,282.23	69.352	8,282.23	61.0394	8,282.23	65.6771	8,282.23	62.2006	8,282.23	64.4268	8,282.23	61.59	8,282.23	61.0042	8,282.23	57.5144	8,282.23	59.9857	8,282.23	36.2639	8,282.23	53.9287	8,282.23	55.7902	8,282.23	49.8438	8,282.23	56.2708	8,282.23	61.6305	8,282.23	52.3062	8,282.23	58.9684	8,282.23	53.0932
8,573.73	82.0259	8,573.73	82.2885	8,573.73	81.9435	8,573.73	81.8646	8,573.73	82.5691	8,573.73	81.3393	8,573.73	82.5391	8,573.73	80.0546	8,573.73	81.394	8,573.73	77.8297	8,573.73	79.8423	8,573.73	74.8681	8,573.73	77.5393	8,573.73	70.5715	8,573.73	74.8697	8,573.73	67.4855	8,573.73	71.3436	8,573.73	64.7122	8,573.73	67.7243	8,573.73	59.1739	8,573.73	63.8932	8,573.73	57.2837	8,573.73	62.5891	8,573.73	55.1888	8,573.73	60.1379	8,573.73	57.3562	8,573.73	52.8314	8,573.73	49.0014	8,573.73	50.2384	8,573.73	52.2345	8,573.73	48.7521	8,573.73	58.0918	8,573.73	58.2418	8,573.73	55.485	8,573.73	58.5655	8,573.73	49.6681
8,876.95	82.1544	8,876.95	81.6839	8,876.95	82.1954	8,876.95	82.1158	8,876.95	82.2481	8,876.95	81.0398	8,876.95	82.5112	8,876.95	79.2691	8,876.95	81.532	8,876.95	76.8534	8,876.95	79.6748	8,876.95	73.4257	8,876.95	77.4322	8,876.95	69.0632	8,876.95	73.9212	8,876.95	65.4824	8,876.95	70.888	8,876.95	60.5491	8,876.95	66.2427	8,876.95	60.4371	8,876.95	62.6487	8,876.95	56.769	8,876.95	59.1611	8,876.95	56.2779	8,876.95	59.3961	8,876.95	58.4412	8,876.95	58.6039	8,876.95	52.0328	8,876.95	55.6849	8,876.95	51.2179	8,876.95	50.6221	8,876.95	57.0004	8,876.95	56.1132	8,876.95	52.6613	8,876.95	55.9156	8,876.95	50.0885
9,188.96	82.5863	9,188.96	82.2055	9,188.96	82.4823	9,188.96	82.3023	9,188.96	82.5259	9,188.96	80.8814	9,188.96	82.2438	9,188.96	79.3695	9,188.96	80.8158	9,188.96	76.6965	9,188.96	79.085	9,188.96	73.3749	9,188.96	76.1388	9,188.96	68.7018	9,188.96	72.0293	9,188.96	65.8529	9,188.96	68.6261	9,188.96	62.9004	9,188.96	64.1975	9,188.96	58.2671	9,188.96	61.4679	9,188.96	56.563	9,188.96	59.6607	9,188.96	56.6419	9,188.96	56.7882	9,188.96	56.6124	9,188.96	55.0178	9,188.96	52.9254	9,188.96	55.7638	9,188.96	39.1229	9,188.96	42.9617	9,188.96	56.2892	9,188.96	51.5111	9,188.96	52.2576	9,188.96	53.9288	9,188.96	48.7316
9,514.16	82.7232	9,514.16	82.3958	9,514.16	82.8034	9,514.16	82.5678	9,514.16	82.5169	9,514.16	81.2076	9,514.16	82.486	9,514.16	79.6417	9,514.16	80.868	9,514.16	76.9362	9,514.16	79.007	9,514.16	73.3549	9,514.16	75.9066	9,514.16	69.3538	9,514.16	72.1355	9,514.16	65.621	9,514.16	67.4442	9,514.16	61.3248	9,514.16	63.1255	9,514.16	59.0627	9,514.16	61.4407	9,514.16	57.8056	9,514.16	58.4491	9,514.16	56.1723	9,514.16	57.303	9,514.16	53.6102	9,514.16	57.3344	9,514.16	50.3088	9,514.16	54.5713	9,514.16	48.6923	9,514.16	42.0258	9,514.16	55.1569	9,514.16	45.016	9,514.16	49.3405	9,514.16	53.3158	9,514.16	47.6455
9,849.61	83.047	9,849.61	82.6767	9,849.61	82.8129	9,849.61	82.7898	9,849.61	82.7791	9,849.61	81.159	9,849.61	82.546	9,849.61	79.4916	9,849.61	80.8138	9,849.61	76.4277	9,849.61	78.2187	9,849.61	72.6821	9,849.61	75.1743	9,849.61	68.7796	9,849.61	71.8569	9,849.61	65.5468	9,849.61	66.9327	9,849.61	62.2404	9,849.61	63.8413	9,849.61	58.8755	9,849.61	60.4445	9,849.61	56.2861	9,849.61	58.1433	9,849.61	54.9167	9,849.61	56.054	9,849.61	50.0178	9,849.61	59.5316	9,849.61	47.1825	9,849.61	43.1793	9,849.61	48.885	9,849.61	39.3842	9,849.61	51.542	9,849.61	45.7709	9,849.61	50.172	9,849.61	51.4802	9,849.61	45.6239
10,196.8	83.3945	10,196.8	83.0215	10,196.8	83.4117	10,196.8	82.7751	10,196.8	83.1483	10,196.8	80.6893	10,196.8	82.6725	10,196.8	78.3282	10,196.8	81.1097	10,196.8	75.1941	10,196.8	78.7728	10,196.8	71.0554	10,196.8	75.3333	10,196.8	66.9901	10,196.8	71.4632	10,196.8	64.6473	10,196.8	68.044	10,196.8	60.1522	10,196.8	63.401	10,196.8	58.9657	10,196.8	59.6588	10,196.8	54.1617	10,196.8	58.9837	10,196.8	51.8771	10,196.8	54.7942	10,196.8	53.7905	10,196.8	59.2454	10,196.8	41.2208	10,196.8	54.4419	10,196.8	52.1917	10,196.8	40.849	10,196.8	44.7766	10,196.8	40.1167	10,196.8	45.3272	10,196.8	52.5176	10,196.8	41.7813
10,555.7	83.375	10,555.7	82.4887	10,555.7	83.5135	10,555.7	81.5988	10,555.7	83.3454	10,555.7	79.7068	10,555.7	82.5855	10,555.7	76.7131	10,555.7	80.9079	10,555.7	74.0786	10,555.7	78.8093	10,555.7	71.0622	10,555.7	75.9683	10,555.7	66.9004	10,555.7	71.8408	10,555.7	63.1953	10,555.7	67.4285	10,555.7	59.72	10,555.7	62.8919	10,555.7	57.1454	10,555.7	58.8635	10,555.7	54.6193	10,555.7	56.4468	10,555.7	48.7432	10,555.7	52.3264	10,555.7	49.2498	10,555.7	58.9944	10,555.7	45.1334	10,555.7	54.0872	10,555.7	48.1359	10,555.7	41.1814	10,555.7	50.194	10,555.7	49.2733	10,555.7	49.0605	10,555.7	46.3383	10,555.7	37.1564
10,927.7	82.9748	10,927.7	82.3209	10,927.7	83.2949	10,927.7	81.7855	10,927.7	83.3365	10,927.7	80.1155	10,927.7	82.5137	10,927.7	77.4382	10,927.7	80.8089	10,927.7	74.9	10,927.7	78.1229	10,927.7	71.7599	10,927.7	75.0463	10,927.7	67.1965	10,927.7	70.7572	10,927.7	61.5323	10,927.7	65.7645	10,927.7	59.6086	10,927.7	61.3521	10,927.7	57.5675	10,927.7	54.3391	10,927.7	53.7362	10,927.7	55.0478	10,927.7	52.8084	10,927.7	53.0248	10,927.7	48.4794	10,927.7	57.146	10,927.7	44.2692	10,927.7	52.4794	10,927.7	44.848	10,927.7	34.3596	10,927.7	50.0599	10,927.7	46.4798	10,927.7	47.5206	10,927.7	45.6097	10,927.7	30.5607
11,313	82.9575	11,313	82.681	11,313	83.2303	11,313	82.145	11,313	83.116	11,313	80.1229	11,313	82.1337	11,313	77.4566	11,313	80.0835	11,313	74.1608	11,313	76.7803	11,313	68.9133	11,313	73.0584	11,313	64.2301	11,313	68.2812	11,313	57.7502	11,313	63.058	11,313	56.7195	11,313	58.2522	11,313	53.6559	11,313	53.7909	11,313	52.2914	11,313	53.5111	11,313	48.2297	11,313	49.3989	11,313	43.1526	11,313	55.8458	11,313	43.5395	11,313	50.8574	11,313	34.7598	11,313	38.4056	11,313	49.0792	11,313	47.9954	11,313	45.0586	11,313	49.0888	11,313	24.5503
11,712.9	82.9986	11,712.9	82.5867	11,712.9	83.0325	11,712.9	81.9338	11,712.9	83.019	11,712.9	79.6829	11,712.9	81.9218	11,712.9	76.3747	11,712.9	79.3562	11,712.9	72.7269	11,712.9	75.581	11,712.9	67.5617	11,712.9	71.1425	11,712.9	63.0285	11,712.9	65.0892	11,712.9	59.4155	11,712.9	56.0338	11,712.9	55.8149	11,712.9	52.4753	11,712.9	55.1521	11,712.9	49.5934	11,712.9	52.1232	11,712.9	44.1172	11,712.9	46.0299	11,712.9	49.4018	11,712.9	46.8293	11,712.9	45.6356	11,712.9	46.0924	11,712.9	47.6731	11,712.9	41.7119	11,712.9	36.6919	11,712.9	48.8797	11,712.9	40.7644	11,712.9	44.1003	11,712.9	41.8143	11,712.9	33.167
12,126	82.7774	12,126	82.5654	12,126	82.8935	12,126	81.8865	12,126	82.8659	12,126	79.7016	12,126	81.8359	12,126	76.5013	12,126	78.7336	12,126	73.173	12,126	75.0219	12,126	68.3488	12,126	69.8327	12,126	62.7886	12,126	63.3021	12,126	60.114	12,126	58.4084	12,126	57.2632	12,126	55.1691	12,126	54.4497	12,126	52.4755	12,126	49.8812	12,126	50.2339	12,126	46.7096	12,126	45.5799	12,126	47.731	12,126	45.7764	12,126	42.4986	12,126	44.3166	12,126	43.5326	12,126	37.0264	12,126	43.9299	12,126	31.0318	12,126	39.2222	12,126	41.6325	12,126	35.0875
12,553.7	82.338	12,553.7	82.2868	12,553.7	82.636	12,553.7	81.7902	12,553.7	82.6437	12,553.7	79.337	12,553.7	81.6841	12,553.7	76.2863	12,553.7	78.7545	12,553.7	72.5022	12,553.7	75.1951	12,553.7	67.3113	12,553.7	70.5274	12,553.7	62.5111	12,553.7	64.2138	12,553.7	58.4015	12,553.7	61.5103	12,553.7	57.4114	12,553.7	58.6779	12,553.7	53.8807	12,553.7	56.2745	12,553.7	48.8922	12,553.7	53.9527	12,553.7	45.2084	12,553.7	51.435	12,553.7	48.5298	12,553.7	49.3455	12,553.7	44.8908	12,553.7	45.5162	12,553.7	42.3586	12,553.7	36.2688	12,553.7	45.8754	12,553.7	28.8034	12,553.7	40.6548	12,553.7	45.1051	12,553.7	29.0052
12,996.1	81.545	12,996.1	81.817	12,996.1	81.944	12,996.1	81.4619	12,996.1	82.2414	12,996.1	79.3912	12,996.1	81.575	12,996.1	76.7827	12,996.1	79.0392	12,996.1	72.9192	12,996.1	75.8373	12,996.1	67.4465	12,996.1	71.6286	12,996.1	62.6261	12,996.1	65.2772	12,996.1	59.0525	12,996.1	62.386	12,996.1	57.3081	12,996.1	60.2756	12,996.1	52.711	12,996.1	57.783	12,996.1	50.3691	12,996.1	54.8718	12,996.1	42.7418	12,996.1	52.1091	12,996.1	48.467	12,996.1	49.164	12,996.1	39.7939	12,996.1	46.288	12,996.1	45.0108	12,996.1	37.4152	12,996.1	47.1511	12,996.1	30.8692	12,996.1	44.7428	12,996.1	47.0607	12,996.1	30.5825
13,454.6	79.9416	13,454.6	80.9053	13,454.6	80.4803	13,454.6	81.0227	13,454.6	81.7494	13,454.6	79.2567	13,454.6	81.5009	13,454.6	76.3657	13,454.6	79.2632	13,454.6	70.4651	13,454.6	75.4875	13,454.6	60.9905	13,454.6	68.9679	13,454.6	56.1258	13,454.6	59.5691	13,454.6	58.0567	13,454.6	59.8639	13,454.6	53.4738	13,454.6	58.0177	13,454.6	53.2115	13,454.6	54.3646	13,454.6	47.6076	13,454.6	50.8032	13,454.6	47.7404	13,454.6	49.7572	13,454.6	50.9161	13,454.6	44.0774	13,454.6	41.4402	13,454.6	43.336	13,454.6	43.1874	13,454.6	29.3332	13,454.6	49.8771	13,454.6	24.0552	13,454.6	43.0155	13,454.6	42.2027	13,454.6	35.5054
13,929.2	79.4403	13,929.2	80.4155	13,929.2	79.5553	13,929.2	80.0547	13,929.2	80.2915	13,929.2	77.6443	13,929.2	79.6254	13,929.2	73.6406	13,929.2	77.4384	13,929.2	67.5481	13,929.2	73.3758	13,929.2	63.0777	13,929.2	67.5991	13,929.2	62.0812	13,929.2	65.2901	13,929.2	59.4388	13,929.2	63.0054	13,929.2	56.6822	13,929.2	60.4245	13,929.2	52.927	13,929.2	56.5556	13,929.2	51.0869	13,929.2	54.2965	13,929.2	47.3493	13,929.2	51.8957	13,929.2	51.0536	13,929.2	49.359	13,929.2	42.967	13,929.2	43.6259	13,929.2	44.8792	13,929.2	37.5872	13,929.2	49.2866	13,929.2	38.033	13,929.2	46.3403	13,929.2	38.2281	13,929.2	33.1156
14,419.9	79.578	14,419.9	80.4664	14,419.9	79.5963	14,419.9	79.8173	14,419.9	80.357	14,419.9	77.3923	14,419.9	79.5156	14,419.9	73.0598	14,419.9	77.3221	14,419.9	66.0343	14,419.9	72.514	14,419.9	62.971	14,419.9	65.0122	14,419.9	61.1157	14,419.9	64.7998	14,419.9	59.5288	14,419.9	60.0883	14,419.9	54.1839	14,419.9	58.9761	14,419.9	50.9118	14,419.9	54.2613	14,419.9	50.1474	14,419.9	51.2879	14,419.9	49.4023	14,419.9	50.4184	14,419.9	50.4102	14,419.9	48.8708	14,419.9	44.2334	14,419.9	43.5513	14,419.9	46.7097	14,419.9	38.3147	14,419.9	49.8098	14,419.9	32.4116	14,419.9	48.2748	14,419.9	44.5677	14,419.9	30.3261
14,928.2	80.704	14,928.2	80.7841	14,928.2	80.8385	14,928.2	79.3979	14,928.2	80.8638	14,928.2	76.9985	14,928.2	79.7668	14,928.2	71.8455	14,928.2	76.9911	14,928.2	61.5286	14,928.2	70.6441	14,928.2	62.4051	14,928.2	61.028	14,928.2	61.8023	14,928.2	64.2001	14,928.2	56.3036	14,928.2	61.5759	14,928.2	53.8572	14,928.2	58.2321	14,928.2	50.9365	14,928.2	50.6711	14,928.2	48.8689	14,928.2	50.606	14,928.2	47.3426	14,928.2	48.9217	14,928.2	49.4533	14,928.2	42.2085	14,928.2	42.5639	14,928.2	41.458	14,928.2	45.2375	14,928.2	34.094	14,928.2	45.6247	14,928.2	39.8075	14,928.2	43.5512	14,928.2	43.5586	14,928.2	27.2657
15,455.6	82.1684	15,455.6	81.2212	15,455.6	82.1881	15,455.6	79.3356	15,455.6	81.3635	15,455.6	75.9476	15,455.6	79.3759	15,455.6	68.9864	15,455.6	75.8482	15,455.6	61.7218	15,455.6	67.3096	15,455.6	62.9252	15,455.6	64.5654	15,455.6	61.7219	15,455.6	66.5134	15,455.6	58.1589	15,455.6	62.6285	15,455.6	53.9739	15,455.6	60.2658	15,455.6	50.037	15,455.6	53.2517	15,455.6	49.8478	15,455.6	54.17	15,455.6	43.6844	15,455.6	50.4404	15,455.6	47.9518	15,455.6	47.4533	15,455.6	43.8887	15,455.6	45.2886	15,455.6	42.8716	15,455.6	44.22	15,455.6	42.7786	15,455.6	36.7182	15,455.6	44.4045	15,455.6	45.1738	15,455.6	28.6547
16,000.5	82.9897	16,000.5	81.9971	16,000.5	82.7795	16,000.5	79.4508	16,000.5	81.5535	16,000.5	75.5253	16,000.5	79.2945	16,000.5	65.5817	16,000.5	75.536	16,000.5	57.9167	16,000.5	65.1946	16,000.5	63.3162	16,000.5	64.4445	16,000.5	62.1786	16,000.5	64.7186	16,000.5	57.3959	16,000.5	61.9598	16,000.5	53.6175	16,000.5	58.6272	16,000.5	50.9601	16,000.5	53.5628	16,000.5	46.4449	16,000.5	51.8237	16,000.5	45.7358	16,000.5	48.8763	16,000.5	44.6419	16,000.5	46.4717	16,000.5	44.8591	16,000.5	40.5216	16,000.5	41.435	16,000.5	41.0741	16,000.5	45.8743	16,000.5	37.4264	16,000.5	40.1073	16,000.5	43.1775	16,000.5	31.9176
16,564.5	83.3129	16,564.5	81.7106	16,564.5	83.2186	16,564.5	78.7061	16,564.5	81.6124	16,564.5	74.4391	16,564.5	79.3727	16,564.5	58.5926	16,564.5	75.1079	16,564.5	63.4572	16,564.5	63.0753	16,564.5	66.1577	16,564.5	64.1287	16,564.5	63.7407	16,564.5	64.0719	16,564.5	60.328	16,564.5	62.1509	16,564.5	56.2022	16,564.5	59.3827	16,564.5	53.1562	16,564.5	55.136	16,564.5	51.8626	16,564.5	53.0162	16,564.5	46.5528	16,564.5	49.5035	16,564.5	41.5913	16,564.5	47.7961	16,564.5	45.9423	16,564.5	38.4367	16,564.5	34.105	16,564.5	43.5345	16,564.5	34.8804	16,564.5	40.2025	16,564.5	38.8372	16,564.5	42.9878	16,564.5	24.5849
17,148.9	83.5606	17,148.9	80.8809	17,148.9	83.327	17,148.9	77.5476	17,148.9	80.5532	17,148.9	71.2607	17,148.9	78.0099	17,148.9	49.7184	17,148.9	72.9174	17,148.9	64.7003	17,148.9	59.7453	17,148.9	66.7479	17,148.9	63.8965	17,148.9	65.2505	17,148.9	65.2494	17,148.9	62.2367	17,148.9	63.6224	17,148.9	56.6206	17,148.9	60.6507	17,148.9	54.1893	17,148.9	57.4439	17,148.9	50.9598	17,148.9	53.2835	17,148.9	48.1346	17,148.9	50.4702	17,148.9	41.9299	17,148.9	49.3012	17,148.9	44.8468	17,148.9	41.7701	17,148.9	42.1372	17,148.9	45.0139	17,148.9	40.0865	17,148.9	41.4475	17,148.9	32.2343	17,148.9	45.5314	17,148.9	31.5634
17,752.4	83.2272	17,752.4	79.7472	17,752.4	82.7675	17,752.4	75.4615	17,752.4	79.0327	17,752.4	65.8488	17,752.4	75.8467	17,752.4	60.1179	17,752.4	68.6043	17,752.4	65.1143	17,752.4	55.7468	17,752.4	66.9958	17,752.4	63.647	17,752.4	65.304	17,752.4	66.4814	17,752.4	60.9247	17,752.4	65.3005	17,752.4	55.2642	17,752.4	60.6326	17,752.4	52.7189	17,752.4	55.2559	17,752.4	49.0081	17,752.4	52.3086	17,752.4	45.7732	17,752.4	51.0249	17,752.4	43.1852	17,752.4	49.5435	17,752.4	40.9502	17,752.4	41.1327	17,752.4	44.7558	17,752.4	45.4196	17,752.4	36.877	17,752.4	43.0586	17,752.4	34.446	17,752.4	44.5832	17,752.4	29.767
18,379.4	82.0748	18,379.4	78.467	18,379.4	81.6144	18,379.4	72.9008	18,379.4	77.53	18,379.4	44.3516	18,379.4	72.8451	18,379.4	64.5229	18,379.4	62.1364	18,379.4	65.5666	18,379.4	57.6275	18,379.4	66.7465	18,379.4	63.8585	18,379.4	62.6404	18,379.4	66.8503	18,379.4	58.111	18,379.4	63.4915	18,379.4	51.3075	18,379.4	58.7354	18,379.4	49.6258	18,379.4	52.9521	18,379.4	46.3033	18,379.4	50.3496	18,379.4	42.7954	18,379.4	48.6305	18,379.4	41.6213	18,379.4	46.2607	18,379.4	33.7145	18,379.4	40.8206	18,379.4	42.6742	18,379.4	44.1892	18,379.4	34.5199	18,379.4	41.9314	18,379.4	30.7042	18,379.4	41.3081	18,379.4	7.97266
19,026.9	80.7251	19,026.9	77.0389	19,026.9	80.3552	19,026.9	70.3603	19,026.9	76.2632	19,026.9	56.4735	19,026.9	70.1534	19,026.9	65.5613	19,026.9	53.7738	19,026.9	66.5388	19,026.9	58.9858	19,026.9	65.696	19,026.9	63.953	19,026.9	60.1713	19,026.9	65.3322	19,026.9	54.2872	19,026.9	61.4973	19,026.9	49.745	19,026.9	56.1588	19,026.9	45.824	19,026.9	49.6524	19,026.9	43.5265	19,026.9	48.2275	19,026.9	39.4937	19,026.9	45.4617	19,026.9	37.4835	19,026.9	44.0188	19,026.9	31.2255	19,026.9	39.1294	19,026.9	39.9076	19,026.9	40.7132	19,026.9	30.7077	19,026.9	39.1202	19,026.9	26.3248	19,026.9	38.1954	19,026.9	22.528
19,697.8	79.5099	19,697.8	75.6312	19,697.8	79.2168	19,697.8	67.3412	19,697.8	74.7906	19,697.8	61.3346	19,697.8	67.0856	19,697.8	66.3971	19,697.8	43.056	19,697.8	66.1831	19,697.8	59.863	19,697.8	63.3393	19,697.8	63.2283	19,697.8	57.7686	19,697.8	62.5413	19,697.8	50.7266	19,697.8	58.672	19,697.8	46.4917	19,697.8	52.5154	19,697.8	43.0499	19,697.8	45.7906	19,697.8	40.7997	19,697.8	45.0336	19,697.8	35.5851	19,697.8	41.9348	19,697.8	34.4441	19,697.8	41.4666	19,697.8	27.8108	19,697.8	37.3794	19,697.8	35.8461	19,697.8	37.938	19,697.8	28.9135	19,697.8	35.6093	19,697.8	30.7278	19,697.8	32.8906	19,697.8	24.5073
19,999.5	79.1583	19,999.5	75.0783	19,999.5	78.6961	19,999.5	66.3853	19,999.5	74.158	19,999.5	62.798	19,999.5	65.4621	19,999.5	66.799	19,999.5	52.7816	19,999.5	65.5077	19,999.5	60.7905	19,999.5	62.7072	19,999.5	62.5318	19,999.5	56.7709	19,999.5	61.6865	19,999.5	49.2437	19,999.5	57.2799	19,999.5	51.0657	19,999.5	51.8426	19,999.5	36.0956	19,999.5	45.4895	19,999.5	46.1544	19,999.5	42.7393	19,999.5	35.6161	19,999.5	40.2885	19,999.5	31.9653	19,999.5	44.9091	19,999.5	33.8017	19,999.5	41.511	19,999.5	35.1015	19,999.5	39.3331	19,999.5	32.0726	19,999.5	35.333	19,999.5	34.8996	19,999.5	31.4671	19,999.5	33.687
