"SPL Vertical"																																																																							
"On-Axis"		"10°"		"-10°"		"20°"		"-20°"		"30°"		"-30°"		"40°"		"-40°"		"50°"		"-50°"		"60°"		"-60°"		"70°"		"-70°"		"80°"		"-80°"		"90°"		"-90°"		"100°"		"-100°"		"110°"		"-110°"		"120°"		"-120°"		"130°"		"-130°"		"140°"		"-140°"		"150°"		"-150°"		"160°"		"-160°"		"170°"		"-170°"		"180°"	
"Frequency [Hz]"	"Sound Pessure Level [dB]  / [2.83V 1m] "	"Frequency [Hz]"	"Sound Pessure Level [dB]  / [2.83V 1m] "	"Frequency [Hz]"	"Sound Pessure Level [dB]  / [2.83V 1m] "	"Frequency [Hz]"	"Sound Pessure Level [dB]  / [2.83V 1m] "	"Frequency [Hz]"	"Sound Pessure Level [dB]  / [2.83V 1m] "	"Frequency [Hz]"	"Sound Pessure Level [dB]  / [2.83V 1m] "	"Frequency [Hz]"	"Sound Pessure Level [dB]  / [2.83V 1m] "	"Frequency [Hz]"	"Sound Pessure Level [dB]  / [2.83V 1m] "	"Frequency [Hz]"	"Sound Pessure Level [dB]  / [2.83V 1m] "	"Frequency [Hz]"	"Sound Pessure Level [dB]  / [2.83V 1m] "	"Frequency [Hz]"	"Sound Pessure Level [dB]  / [2.83V 1m] "	"Frequency [Hz]"	"Sound Pessure Level [dB]  / [2.83V 1m] "	"Frequency [Hz]"	"Sound Pessure Level [dB]  / [2.83V 1m] "	"Frequency [Hz]"	"Sound Pessure Level [dB]  / [2.83V 1m] "	"Frequency [Hz]"	"Sound Pessure Level [dB]  / [2.83V 1m] "	"Frequency [Hz]"	"Sound Pessure Level [dB]  / [2.83V 1m] "	"Frequency [Hz]"	"Sound Pessure Level [dB]  / [2.83V 1m] "	"Frequency [Hz]"	"Sound Pessure Level [dB]  / [2.83V 1m] "	"Frequency [Hz]"	"Sound Pessure Level [dB]  / [2.83V 1m] "	"Frequency [Hz]"	"Sound Pessure Level [dB]  / [2.83V 1m] "	"Frequency [Hz]"	"Sound Pessure Level [dB]  / [2.83V 1m] "	"Frequency [Hz]"	"Sound Pessure Level [dB]  / [2.83V 1m] "	"Frequency [Hz]"	"Sound Pessure Level [dB]  / [2.83V 1m] "	"Frequency [Hz]"	"Sound Pessure Level [dB]  / [2.83V 1m] "	"Frequency [Hz]"	"Sound Pessure Level [dB]  / [2.83V 1m] "	"Frequency [Hz]"	"Sound Pessure Level [dB]  / [2.83V 1m] "	"Frequency [Hz]"	"Sound Pessure Level [dB]  / [2.83V 1m] "	"Frequency [Hz]"	"Sound Pessure Level [dB]  / [2.83V 1m] "	"Frequency [Hz]"	"Sound Pessure Level [dB]  / [2.83V 1m] "	"Frequency [Hz]"	"Sound Pessure Level [dB]  / [2.83V 1m] "	"Frequency [Hz]"	"Sound Pessure Level [dB]  / [2.83V 1m] "	"Frequency [Hz]"	"Sound Pessure Level [dB]  / [2.83V 1m] "	"Frequency [Hz]"	"Sound Pessure Level [dB]  / [2.83V 1m] "	"Frequency [Hz]"	"Sound Pessure Level [dB]  / [2.83V 1m] "	"Frequency [Hz]"	"Sound Pessure Level [dB]  / [2.83V 1m] "	"Frequency [Hz]"	"Sound Pessure Level [dB]  / [2.83V 1m] "
20.5078	54.7856	20.5078	54.5552	20.5078	55.0305	20.5078	54.345	20.5078	55.2819	20.5078	54.1584	20.5078	55.5295	20.5078	53.9978	20.5078	55.762	20.5078	53.8648	20.5078	55.9682	20.5078	53.7614	20.5078	56.1378	20.5078	53.6892	20.5078	56.2629	20.5078	53.65	20.5078	56.3383	20.5078	53.6453	20.5078	56.3623	20.5078	53.6762	20.5078	56.3368	20.5078	53.7432	20.5078	56.2663	20.5078	53.8461	20.5078	56.1574	20.5078	53.9835	20.5078	56.0171	20.5078	54.1526	20.5078	55.8516	20.5078	54.3484	20.5078	55.6657	20.5078	54.5639	20.5078	55.4631	20.5078	54.7908	20.5078	55.2468	20.5078	55.0209
21.9727	54.5606	21.9727	54.2142	21.9727	54.9271	21.9727	53.9023	21.9727	55.2973	21.9727	53.6359	21.9727	55.6541	21.9727	53.421	21.9727	55.9816	21.9727	53.2599	21.9727	56.2654	21.9727	53.151	21.9727	56.4937	21.9727	53.0912	21.9727	56.6575	21.9727	53.077	21.9727	56.7514	21.9727	53.1053	21.9727	56.7742	21.9727	53.1743	21.9727	56.729	21.9727	53.2829	21.9727	56.6229	21.9727	53.4307	21.9727	56.4654	21.9727	53.6164	21.9727	56.2673	21.9727	53.8375	21.9727	56.0383	21.9727	54.0888	21.9727	55.7864	21.9727	54.363	21.9727	55.5171	21.9727	54.6511	21.9727	55.235	21.9727	54.9443
23.4375	55.3135	23.4375	54.9463	23.4375	55.7052	23.4375	54.6165	23.4375	56.1057	23.4375	54.3337	23.4375	56.4978	23.4375	54.1043	23.4375	56.8635	23.4375	53.9315	23.4375	57.1863	23.4375	53.8158	23.4375	57.4518	23.4375	53.7558	23.4375	57.649	23.4375	53.7491	23.4375	57.7713	23.4375	53.7931	23.4375	57.8169	23.4375	53.8851	23.4375	57.789	23.4375	54.0231	23.4375	57.6945	23.4375	54.2049	23.4375	57.5436	23.4375	54.4277	23.4375	57.3468	23.4375	54.6872	23.4375	57.1136	23.4375	54.9774	23.4375	56.8515	23.4375	55.2898	23.4375	56.5656	23.4375	55.6144	23.4375	56.2604	23.4375	55.941
24.9023	56.9451	24.9023	56.6233	24.9023	57.2908	24.9023	56.335	24.9023	57.6475	24.9023	56.0863	24.9023	57.9996	24.9023	55.8802	24.9023	58.3299	24.9023	55.7172	24.9023	58.6211	24.9023	55.5964	24.9023	58.8575	24.9023	55.5161	24.9023	59.026	24.9023	55.4748	24.9023	59.1178	24.9023	55.471	24.9023	59.1294	24.9023	55.5043	24.9023	59.0629	24.9023	55.5746	24.9023	58.9256	24.9023	55.6823	24.9023	58.7293	24.9023	55.8273	24.9023	58.4878	24.9023	56.0088	24.9023	58.2151	24.9023	56.2242	24.9023	57.9237	24.9023	56.4693	24.9023	57.6234	24.9023	56.7382	24.9023	57.3215	24.9023	57.0244
26.3672	56.9593	26.3672	56.5322	26.3672	57.4009	26.3672	56.1372	26.3672	57.8378	26.3672	55.7892	26.3672	58.2504	26.3672	55.4991	26.3672	58.6194	26.3672	55.273	26.3672	58.9269	26.3672	55.1125	26.3672	59.1569	26.3672	55.015	26.3672	59.2971	26.3672	54.9753	26.3672	59.3395	26.3672	54.987	26.3672	59.2817	26.3672	55.0434	26.3672	59.1286	26.3672	55.1386	26.3672	58.8921	26.3672	55.2678	26.3672	58.5905	26.3672	55.4267	26.3672	58.2468	26.3672	55.612	26.3672	57.8849	26.3672	55.8206	26.3672	57.5256	26.3672	56.0505	26.3672	57.1833	26.3672	56.3005	26.3672	56.8648	26.3672	56.5712
27.832	60.163	27.832	59.8091	27.832	60.5293	27.832	59.478	27.832	60.8956	27.832	59.1775	27.832	61.2472	27.832	58.9128	27.832	61.5685	27.832	58.6869	27.832	61.8432	27.832	58.5009	27.832	62.0561	27.832	58.3542	27.832	62.1938	27.832	58.2456	27.832	62.2463	27.832	58.1733	27.832	62.2082	27.832	58.1361	27.832	62.0791	27.832	58.1333	27.832	61.8644	27.832	58.1658	27.832	61.5749	27.832	58.2354	27.832	61.2256	27.832	58.3457	27.832	60.8353	27.832	58.501	27.832	60.4246	27.832	58.7055	27.832	60.0146	27.832	58.9621	27.832	59.6245	27.832	59.2701
29.2969	62.0576	29.2969	61.736	29.2969	62.3959	29.2969	61.4403	29.2969	62.7388	29.2969	61.1767	29.2969	63.0725	29.2969	60.9491	29.2969	63.3815	29.2969	60.7591	29.2969	63.6502	29.2969	60.6065	29.2969	63.8638	29.2969	60.4903	29.2969	64.0101	29.2969	60.4087	29.2969	64.0797	29.2969	60.3604	29.2969	64.0681	29.2969	60.3445	29.2969	63.9752	29.2969	60.3609	29.2969	63.8059	29.2969	60.4108	29.2969	63.5693	29.2969	60.4965	29.2969	63.2781	29.2969	60.6209	29.2969	62.9472	29.2969	60.7874	29.2969	62.5928	29.2969	60.9981	29.2969	62.2314	29.2969	61.2531	29.2969	61.8788	29.2969	61.5491
30.7617	63.4752	30.7617	63.1682	30.7617	63.7999	30.7617	62.8882	30.7617	64.1302	30.7617	62.6417	30.7617	64.4519	30.7617	62.4327	30.7617	64.7498	30.7617	62.2624	30.7617	65.0084	30.7617	62.1307	30.7617	65.2134	30.7617	62.0362	30.7617	65.3526	30.7617	61.9769	30.7617	65.4175	30.7617	61.9509	30.7617	65.4041	30.7617	61.9568	30.7617	65.3141	30.7617	61.9936	30.7617	65.1544	30.7617	62.0615	30.7617	64.936	30.7617	62.161	30.7617	64.6728	30.7617	62.2934	30.7617	64.3793	30.7617	62.4599	30.7617	64.0695	30.7617	62.661	30.7617	63.7558	30.7617	62.8955	30.7617	63.4496	30.7617	63.1602
32.2266	65.7192	32.2266	65.4098	32.2266	66.0412	32.2266	65.1225	32.2266	66.3642	32.2266	64.8645	32.2266	66.675	32.2266	64.6404	32.2266	66.9597	32.2266	64.4528	32.2266	67.2041	32.2266	64.3024	32.2266	67.395	32.2266	64.1889	32.2266	67.5214	32.2266	64.1112	32.2266	67.5753	32.2266	64.0682	32.2266	67.5534	32.2266	64.0592	32.2266	67.457	32.2266	64.0838	32.2266	67.2925	32.2266	64.1427	32.2266	67.0701	32.2266	64.2369	32.2266	66.8026	32.2266	64.3677	32.2266	66.5041	32.2266	64.536	32.2266	66.1881	32.2266	64.7418	32.2266	65.8674	32.2266	64.9831	32.2266	65.5533	32.2266	65.2557
33.6914	67.6684	33.6914	67.3846	33.6914	67.9628	33.6914	67.1196	33.6914	68.2571	33.6914	66.8799	33.6914	68.5395	33.6914	66.6695	33.6914	68.7966	33.6914	66.4908	33.6914	69.0152	33.6914	66.3447	33.6914	69.1824	33.6914	66.2311	33.6914	69.2877	33.6914	66.1492	33.6914	69.3235	33.6914	66.0982	33.6914	69.2865	33.6914	66.0776	33.6914	69.1783	33.6914	66.0869	33.6914	69.0053	33.6914	66.1264	33.6914	68.7782	33.6914	66.197	33.6914	68.5106	33.6914	66.2999	33.6914	68.2171	33.6914	66.4363	33.6914	67.9122	33.6914	66.6075	33.6914	67.6092	33.6914	66.8132	33.6914	67.3194	33.6914	67.0519
35.1562	69.4579	35.1562	69.1911	35.1562	69.7374	35.1562	68.945	35.1562	70.0196	35.1562	68.7254	35.1562	70.2931	35.1562	68.5363	35.1562	70.5454	35.1562	68.3799	35.1562	70.7636	35.1562	68.2571	35.1562	70.9358	35.1562	68.1677	35.1562	71.0519	35.1562	68.111	35.1562	71.1048	35.1562	68.086	35.1562	71.0913	35.1562	68.0918	35.1562	71.013	35.1562	68.1276	35.1562	70.8759	35.1562	68.1929	35.1562	70.6893	35.1562	68.2874	35.1562	70.465	35.1562	68.4109	35.1562	70.2153	35.1562	68.5631	35.1562	69.9521	35.1562	68.743	35.1562	69.6859	35.1562	68.9489	35.1562	69.4254	35.1562	69.1778
36.6211	71.3799	36.6211	71.1226	36.6211	71.6465	36.6211	70.8824	36.6211	71.9129	36.6211	70.6651	36.6211	72.1684	36.6211	70.475	36.6211	72.4013	36.6211	70.3147	36.6211	72.5995	36.6211	70.1854	36.6211	72.7518	36.6211	70.0875	36.6211	72.849	36.6211	70.0207	36.6211	72.8844	36.6211	69.9844	36.6211	72.8555	36.6211	69.9778	36.6211	72.764	36.6211	69.9999	36.6211	72.6161	36.6211	70.0503	36.6211	72.4214	36.6211	70.1286	36.6211	72.1916	36.6211	70.2345	36.6211	71.9396	36.6211	70.3681	36.6211	71.6774	36.6211	70.5291	36.6211	71.4161	36.6211	70.717	36.6211	71.1645	36.6211	70.9298
38.0859	73.2316	38.0859	72.9802	38.0859	73.4902	38.0859	72.7433	38.0859	73.747	38.0859	72.5269	38.0859	73.9918	38.0859	72.3352	38.0859	74.2138	38.0859	72.1712	38.0859	74.4018	38.0859	72.0363	38.0859	74.5454	38.0859	71.9314	38.0859	74.6357	38.0859	71.8562	38.0859	74.6666	38.0859	71.8105	38.0859	74.6357	38.0859	71.7937	38.0859	74.5445	38.0859	71.8055	38.0859	74.3986	38.0859	71.8458	38.0859	74.2066	38.0859	71.9151	38.0859	73.9796	38.0859	72.0139	38.0859	73.7291	38.0859	72.1431	38.0859	73.4667	38.0859	72.3028	38.0859	73.2031	38.0859	72.4921	38.0859	72.9477	38.0859	72.7086
39.5508	74.8181	39.5508	74.5775	39.5508	75.0657	39.5508	74.3511	39.5508	75.3114	39.5508	74.1447	39.5508	75.5455	39.5508	73.9626	39.5508	75.7572	39.5508	73.8075	39.5508	75.9359	39.5508	73.6812	39.5508	76.0716	39.5508	73.5842	39.5508	76.1561	39.5508	73.5167	39.5508	76.1839	39.5508	73.4781	39.5508	76.1528	39.5508	73.4679	39.5508	76.0648	39.5508	73.4854	39.5508	75.9256	39.5508	73.5301	39.5508	75.744	39.5508	73.6017	39.5508	75.5306	39.5508	73.7002	39.5508	75.2967	39.5508	73.8255	39.5508	75.0533	39.5508	73.9772	39.5508	74.81	39.5508	74.1543	39.5508	74.5749	39.5508	74.3547
41.0156	76.2979	41.0156	76.0804	41.0156	76.5191	41.0156	75.8732	41.0156	76.7364	41.0156	75.6818	41.0156	76.9413	41.0156	75.5108	41.0156	77.1248	41.0156	75.3635	41.0156	77.2779	41.0156	75.2425	41.0156	77.392	41.0156	75.1492	41.0156	77.4601	41.0156	75.0843	41.0156	77.4777	41.0156	75.0481	41.0156	77.4436	41.0156	75.04	41.0156	77.3602	41.0156	75.0595	41.0156	77.2332	41.0156	75.1057	41.0156	77.0711	41.0156	75.1776	41.0156	76.8837	41.0156	75.274	41.0156	76.6809	41.0156	75.3936	41.0156	76.4717	41.0156	75.5345	41.0156	76.2636	41.0156	75.6945	41.0156	76.062	41.0156	75.8713
42.4805	77.019	42.4805	76.7978	42.4805	77.2436	42.4805	76.5865	42.4805	77.4638	42.4805	76.3905	42.4805	77.6711	42.4805	76.2144	42.4805	77.8563	42.4805	76.0616	42.4805	78.0099	42.4805	75.935	42.4805	78.1231	42.4805	75.8362	42.4805	78.189	42.4805	75.7663	42.4805	78.2028	42.4805	75.7258	42.4805	78.1633	42.4805	75.7142	42.4805	78.0731	42.4805	75.7308	42.4805	77.9381	42.4805	75.7746	42.4805	77.7672	42.4805	75.8442	42.4805	77.5706	42.4805	75.9381	42.4805	77.3587	42.4805	76.0549	42.4805	77.1414	42.4805	76.1932	42.4805	76.9267	42.4805	76.3514	42.4805	76.7208	42.4805	76.528
43.9453	77.8759	43.9453	77.6634	43.9453	78.0904	43.9453	77.4589	43.9453	78.2998	43.9453	77.2676	43.9453	78.4961	43.9453	77.0937	43.9453	78.6707	43.9453	76.9406	43.9453	78.8148	43.9453	76.8112	43.9453	78.9203	43.9453	76.7074	43.9453	78.9806	43.9453	76.6308	43.9453	78.9915	43.9453	76.5823	43.9453	78.9519	43.9453	76.5624	43.9453	78.8642	43.9453	76.5712	43.9453	78.734	43.9453	76.6082	43.9453	78.5695	43.9453	76.6728	43.9453	78.3798	43.9453	76.7636	43.9453	78.1746	43.9453	76.8793	43.9453	77.9628	43.9453	77.0179	43.9453	77.7517	43.9453	77.1773	43.9453	77.5474	43.9453	77.3548
45.4102	78.3187	45.4102	78.1081	45.4102	78.5296	45.4102	77.9038	45.4102	78.7335	45.4102	77.7111	45.4102	78.9228	45.4102	77.5344	45.4102	79.0891	45.4102	77.3775	45.4102	79.224	45.4102	77.2433	45.4102	79.3199	45.4102	77.1344	45.4102	79.3707	45.4102	77.0526	45.4102	79.3729	45.4102	76.9993	45.4102	79.3259	45.4102	76.9753	45.4102	79.2326	45.4102	76.9809	45.4102	79.0988	45.4102	77.0157	45.4102	78.933	45.4102	77.0786	45.4102	78.7445	45.4102	77.1682	45.4102	78.5426	45.4102	77.2822	45.4102	78.3359	45.4102	77.4184	45.4102	78.131	45.4102	77.5741	45.4102	77.9332	45.4102	77.7466
46.875	78.6865	46.875	78.4784	46.875	78.8934	46.875	78.2752	46.875	79.0919	46.875	78.0824	46.875	79.2745	46.875	77.9045	46.875	79.433	46.875	77.7456	46.875	79.5595	46.875	77.6087	46.875	79.6467	46.875	77.4963	46.875	79.6889	46.875	77.4104	46.875	79.6828	46.875	77.3521	46.875	79.6279	46.875	77.3223	46.875	79.5272	46.875	77.321	46.875	79.3868	46.875	77.3479	46.875	79.215	46.875	77.4021	46.875	79.0216	46.875	77.4823	46.875	78.8162	46.875	77.5868	46.875	78.6077	46.875	77.7136	46.875	78.4032	46.875	77.8609	46.875	78.2081	46.875	78.0264
48.3398	79.0053	48.3398	78.8017	48.3398	79.2069	48.3398	78.6023	48.3398	79.3996	48.3398	78.4124	48.3398	79.5762	48.3398	78.2364	48.3398	79.7287	48.3398	78.0784	48.3398	79.8495	48.3398	77.9414	48.3398	79.9316	48.3398	77.8279	48.3398	79.9695	48.3398	77.7399	48.3398	79.96	48.3398	77.6784	48.3398	79.9029	48.3398	77.6442	48.3398	79.8008	48.3398	77.6374	48.3398	79.6596	48.3398	77.6578	48.3398	79.4874	48.3398	77.7047	48.3398	79.2933	48.3398	77.777	48.3398	79.087	48.3398	77.8738	48.3398	78.8774	48.3398	77.9937	48.3398	78.6722	48.3398	78.1355	48.3398	78.4774	48.3398	78.2974
51.2695	79.4299	51.2695	79.2328	51.2695	79.6238	51.2695	79.0385	51.2695	79.808	51.2695	78.8524	51.2695	79.9753	51.2695	78.6793	51.2695	80.1186	51.2695	78.5231	51.2695	80.2307	51.2695	78.3873	51.2695	80.3054	51.2695	78.2745	51.2695	80.338	51.2695	78.1868	51.2695	80.3257	51.2695	78.1255	51.2695	80.2687	51.2695	78.0911	51.2695	80.1698	51.2695	78.0838	51.2695	80.0344	51.2695	78.1033	51.2695	79.87	51.2695	78.1488	51.2695	79.685	51.2695	78.2193	51.2695	79.488	51.2695	78.3137	51.2695	79.2872	51.2695	78.4307	51.2695	79.0897	51.2695	78.5689	51.2695	78.9013	51.2695	78.7266
52.7344	79.6415	52.7344	79.4496	52.7344	79.8295	52.7344	79.2598	52.7344	80.0071	52.7344	79.0774	52.7344	80.1676	52.7344	78.9074	52.7344	80.304	52.7344	78.7539	52.7344	80.41	52.7344	78.6206	52.7344	80.4797	52.7344	78.5102	52.7344	80.5089	52.7344	78.4248	52.7344	80.4954	52.7344	78.3658	52.7344	80.4397	52.7344	78.3338	52.7344	80.3446	52.7344	78.3289	52.7344	80.2155	52.7344	78.3506	52.7344	80.0594	52.7344	78.398	52.7344	79.8842	52.7344	78.4699	52.7344	79.6978	52.7344	78.5649	52.7344	79.5075	52.7344	78.6813	52.7344	79.3196	52.7344	78.8173	52.7344	79.1393	52.7344	78.9708
54.1992	79.8649	54.1992	79.6796	54.1992	80.0448	54.1992	79.4947	54.1992	80.2132	54.1992	79.3157	54.1992	80.3636	54.1992	79.1476	54.1992	80.4896	54.1992	78.9948	54.1992	80.5852	54.1992	78.8612	54.1992	80.6453	54.1992	78.7498	54.1992	80.6661	54.1992	78.663	54.1992	80.646	54.1992	78.6023	54.1992	80.5856	54.1992	78.5687	54.1992	80.4883	54.1992	78.5621	54.1992	80.3597	54.1992	78.5819	54.1992	80.2068	54.1992	78.6272	54.1992	80.0374	54.1992	78.6964	54.1992	79.859	54.1992	78.7875	54.1992	79.6783	54.1992	78.8986	54.1992	79.501	54.1992	79.0277	54.1992	79.3313	54.1992	79.1727
55.6641	80.0935	55.6641	79.9127	55.6641	80.269	55.6641	79.7323	55.6641	80.433	55.6641	79.5576	55.6641	80.5792	55.6641	79.3933	55.6641	80.7013	55.6641	79.2437	55.6641	80.7931	55.6641	79.1122	55.6641	80.8497	55.6641	79.0018	55.6641	80.8674	55.6641	78.9145	55.6641	80.8444	55.6641	78.8518	55.6641	80.7815	55.6641	78.8144	55.6641	80.682	55.6641	78.8024	55.6641	80.5514	55.6641	78.8156	55.6641	80.3965	55.6641	78.8529	55.6641	80.2252	55.6641	78.9135	55.6641	80.0451	55.6641	78.996	55.6641	79.8631	55.6641	79.0991	55.6641	79.6855	55.6641	79.2214	55.6641	79.517	55.6641	79.3614
58.5938	80.5304	58.5938	80.3514	58.5938	80.7031	58.5938	80.1721	58.5938	80.8632	58.5938	79.998	58.5938	81.0044	58.5938	79.8344	58.5938	81.1206	58.5938	79.6857	58.5938	81.2063	58.5938	79.5557	58.5938	81.2568	58.5938	79.4473	58.5938	81.2691	58.5938	79.363	58.5938	81.2424	58.5938	79.304	58.5938	81.1779	58.5938	79.2711	58.5938	81.0796	58.5938	79.2641	58.5938	80.9529	58.5938	79.2824	58.5938	80.8047	58.5938	79.3246	58.5938	80.6426	58.5938	79.3891	58.5938	80.4733	58.5938	79.4739	58.5938	80.3031	58.5938	79.5771	58.5938	80.137	58.5938	79.6969	58.5938	79.9788	58.5938	79.8314
60.0586	80.7985	60.0586	80.6223	60.0586	80.9679	60.0586	80.4452	60.0586	81.1241	60.0586	80.2728	60.0586	81.2611	60.0586	80.1103	60.0586	81.3731	60.0586	79.9624	60.0586	81.4545	60.0586	79.833	60.0586	81.5013	60.0586	79.7253	60.0586	81.5108	60.0586	79.6416	60.0586	81.4822	60.0586	79.5834	60.0586	81.4173	60.0586	79.5514	60.0586	81.3199	60.0586	79.5454	60.0586	81.1957	60.0586	79.5645	60.0586	81.0517	60.0586	79.6074	60.0586	80.8947	60.0586	79.6723	60.0586	80.7314	60.0586	79.7572	60.0586	80.5674	60.0586	79.8598	60.0586	80.4071	60.0586	79.9781	60.0586	80.2538	60.0586	80.1101
62.9883	81.417	62.9883	81.247	62.9883	81.5783	62.9883	81.0739	62.9883	81.7251	62.9883	80.9032	62.9883	81.8515	62.9883	80.74	62.9883	81.952	62.9883	80.5889	62.9883	82.0217	62.9883	80.4539	62.9883	82.0568	62.9883	80.3384	62.9883	82.0547	62.9883	80.2451	62.9883	82.0153	62.9883	80.1758	62.9883	81.9404	62.9883	80.1319	62.9883	81.8342	62.9883	80.1136	62.9883	81.7026	62.9883	80.1207	62.9883	81.5526	62.9883	80.1522	62.9883	81.3915	62.9883	80.2066	62.9883	81.226	62.9883	80.282	62.9883	81.0616	62.9883	80.3764	62.9883	80.9028	62.9883	80.4876	62.9883	80.7528	62.9883	80.6137
64.4531	81.6383	64.4531	81.4687	64.4531	81.7983	64.4531	81.2951	64.4531	81.9427	64.4531	81.1229	64.4531	82.0659	64.4531	80.9576	64.4531	82.1625	64.4531	80.8038	64.4531	82.2276	64.4531	80.6658	64.4531	82.2576	64.4531	80.5474	64.4531	82.2503	64.4531	80.4512	64.4531	82.2056	64.4531	80.3796	64.4531	82.1258	64.4531	80.3335	64.4531	82.0151	64.4531	80.3135	64.4531	81.8797	64.4531	80.319	64.4531	81.7269	64.4531	80.3488	64.4531	81.5641	64.4531	80.4014	64.4531	81.3982	64.4531	80.4744	64.4531	81.2348	64.4531	80.5659	64.4531	81.0782	64.4531	80.6737	64.4531	80.9313	64.4531	80.796
67.3828	82.0326	67.3828	81.8679	67.3828	82.1867	67.3828	81.6978	67.3828	82.3247	67.3828	81.5279	67.3828	82.4414	67.3828	81.3632	67.3828	82.5316	67.3828	81.2084	67.3828	82.5913	67.3828	81.0679	67.3828	82.6172	67.3828	80.9456	67.3828	82.6074	67.3828	80.8444	67.3828	82.562	67.3828	80.7668	67.3828	82.4831	67.3828	80.7144	67.3828	82.3744	67.3828	80.6878	67.3828	82.2414	67.3828	80.6868	67.3828	82.0906	67.3828	80.7109	67.3828	81.9286	67.3828	80.7585	67.3828	81.762	67.3828	80.828	67.3828	81.5965	67.3828	80.9175	67.3828	81.4368	67.3828	81.025	67.3828	81.2866	67.3828	81.1487
68.8477	82.1338	68.8477	81.9743	68.8477	82.2829	68.8477	81.8097	68.8477	82.4163	68.8477	81.6452	68.8477	82.5289	68.8477	81.4857	68.8477	82.6159	68.8477	81.3359	68.8477	82.6732	68.8477	81.2001	68.8477	82.6979	68.8477	81.0819	68.8477	82.6884	68.8477	80.9845	68.8477	82.645	68.8477	80.9102	68.8477	82.5699	68.8477	80.8606	68.8477	82.467	68.8477	80.8365	68.8477	82.3417	68.8477	80.8379	68.8477	82.1999	68.8477	80.864	68.8477	82.0478	68.8477	80.9135	68.8477	81.8911	68.8477	80.9845	68.8477	81.7348	68.8477	81.0748	68.8477	81.5828	68.8477	81.1821	68.8477	81.4384	68.8477	81.3041
71.7773	82.4091	71.7773	82.254	71.7773	82.5529	71.7773	82.0928	71.7773	82.68	71.7773	81.931	71.7773	82.7853	71.7773	81.7738	71.7773	82.8643	71.7773	81.626	71.7773	82.9134	71.7773	81.4923	71.7773	82.9302	71.7773	81.3768	71.7773	82.9139	71.7773	81.2827	71.7773	82.8655	71.7773	81.2125	71.7773	82.788	71.7773	81.1678	71.7773	82.6859	71.7773	81.149	71.7773	82.5648	71.7773	81.1559	71.7773	82.4308	71.7773	81.1869	71.7773	82.2895	71.7773	81.2397	71.7773	82.1461	71.7773	81.3118	71.7773	82.0044	71.7773	81.4002	71.7773	81.8675	71.7773	81.5019	71.7773	81.7371	71.7773	81.6148
74.707	82.5819	74.707	82.4352	74.707	82.7185	74.707	82.2836	74.707	82.8394	74.707	82.1326	74.707	82.9397	74.707	81.987	74.707	83.0146	74.707	81.8517	74.707	83.0607	74.707	81.7306	74.707	83.0756	74.707	81.6274	74.707	83.0586	74.707	81.5449	74.707	83.0109	74.707	81.4849	74.707	82.9356	74.707	81.4484	74.707	82.8372	74.707	81.4353	74.707	82.7215	74.707	81.4447	74.707	82.5944	74.707	81.4749	74.707	82.4617	74.707	81.5234	74.707	82.3284	74.707	81.5877	74.707	82.1987	74.707	81.6651	74.707	82.0751	74.707	81.7537	74.707	81.9593	74.707	81.852
77.6367	82.6725	77.6367	82.5277	77.6367	82.8064	77.6367	82.3779	77.6367	82.9239	77.6367	82.2287	77.6367	83.0198	77.6367	82.0855	77.6367	83.0897	77.6367	81.9529	77.6367	83.1305	77.6367	81.8353	77.6367	83.1402	77.6367	81.736	77.6367	83.1188	77.6367	81.6576	77.6367	83.0682	77.6367	81.6015	77.6367	82.9918	77.6367	81.5685	77.6367	82.8947	77.6367	81.5582	77.6367	82.7826	77.6367	81.5695	77.6367	82.6614	77.6367	81.6005	77.6367	82.5364	77.6367	81.6487	77.6367	82.412	77.6367	81.7117	77.6367	82.2912	77.6367	81.7869	77.6367	82.176	77.6367	81.8721	77.6367	82.0674	77.6367	81.966
79.1016	82.7486	79.1016	82.6061	79.1016	82.8798	79.1016	82.4579	79.1016	82.9943	79.1016	82.3095	79.1016	83.0869	79.1016	82.1664	79.1016	83.1537	79.1016	82.0334	79.1016	83.1915	79.1016	81.9146	79.1016	83.1986	79.1016	81.8136	79.1016	83.1752	79.1016	81.7329	79.1016	83.1231	79.1016	81.6743	79.1016	83.0458	79.1016	81.6384	79.1016	82.9482	79.1016	81.6251	79.1016	82.8361	79.1016	81.6334	79.1016	82.715	79.1016	81.6616	79.1016	82.5903	79.1016	81.7074	79.1016	82.4661	79.1016	81.7684	79.1016	82.3454	79.1016	81.8421	79.1016	82.2301	79.1016	81.9265	79.1016	82.1214	79.1016	82.02
82.0312	83.0298	82.0312	82.8888	82.0312	83.1579	82.0312	82.7406	82.0312	83.2675	82.0312	82.5912	82.0312	83.3537	82.0312	82.4459	82.0312	83.4124	82.0312	82.3098	82.0312	83.4409	82.0312	82.1874	82.0312	83.4379	82.0312	82.0823	82.0312	83.404	82.0312	81.9972	82.0312	83.3416	82.0312	81.9338	82.0312	83.2552	82.0312	81.8929	82.0312	83.1502	82.0312	81.8745	82.0312	83.033	82.0312	81.8775	82.0312	82.9094	82.0312	81.9003	82.0312	82.7847	82.0312	81.9409	82.0312	82.6626	82.0312	81.9968	82.0312	82.5455	82.0312	82.0657	82.0312	82.4347	82.0312	82.1454	82.0312	82.3308	82.0312	82.2342
84.9609	83.1598	84.9609	83.0199	84.9609	83.2853	84.9609	82.8717	84.9609	83.3907	84.9609	82.7216	84.9609	83.471	84.9609	82.5756	84.9609	83.5223	84.9609	82.4394	84.9609	83.5424	84.9609	82.3179	84.9609	83.5308	84.9609	82.2152	84.9609	83.4886	84.9609	82.1339	84.9609	83.4192	84.9609	82.0756	84.9609	83.3272	84.9609	82.0407	84.9609	83.2185	84.9609	82.0282	84.9609	83.0994	84.9609	82.0362	84.9609	82.9759	84.9609	82.0619	84.9609	82.8534	84.9609	82.1022	84.9609	82.7365	84.9609	82.154	84.9609	82.6278	84.9609	82.2148	84.9609	82.5286	84.9609	82.2827	84.9609	82.4388	84.9609	82.3573
87.8906	83.1218	87.8906	83.0057	87.8906	83.224	87.8906	82.8803	87.8906	83.308	87.8906	82.7506	87.8906	83.3707	87.8906	82.6219	87.8906	83.4097	87.8906	82.4993	87.8906	83.424	87.8906	82.3875	87.8906	83.414	87.8906	82.2906	87.8906	83.3812	87.8906	82.2118	87.8906	83.3284	87.8906	82.1533	87.8906	83.259	87.8906	82.1162	87.8906	83.1771	87.8906	82.1003	87.8906	83.0863	87.8906	82.1047	87.8906	82.99	87.8906	82.1274	87.8906	82.891	87.8906	82.1658	87.8906	82.7918	87.8906	82.2174	87.8906	82.6943	87.8906	82.2794	87.8906	82.6004	87.8906	82.3499	87.8906	82.5111	87.8906	82.4274
90.8203	83.3728	90.8203	83.2577	90.8203	83.4755	90.8203	83.1349	90.8203	83.5615	90.8203	83.0093	90.8203	83.6271	90.8203	82.8859	90.8203	83.6696	90.8203	82.7697	90.8203	83.6876	90.8203	82.6651	90.8203	83.6813	90.8203	82.5765	90.8203	83.6524	90.8203	82.5071	90.8203	83.6045	90.8203	82.4592	90.8203	83.5419	90.8203	82.4338	90.8203	83.4695	90.8203	82.4306	90.8203	83.3917	90.8203	82.4483	90.8203	83.3117	90.8203	82.4844	90.8203	83.2311	90.8203	82.5356	90.8203	83.1506	90.8203	82.5986	90.8203	83.07	90.8203	82.67	90.8203	82.989	90.8203	82.7468	90.8203	82.9078	90.8203	82.8267
95.2148	83.7064	95.2148	83.5928	95.2148	83.8019	95.2148	83.4664	95.2148	83.8749	95.2148	83.3325	95.2148	83.9223	95.2148	83.1968	95.2148	83.9418	95.2148	83.0651	95.2148	83.9329	95.2148	82.9428	95.2148	83.8972	95.2148	82.8349	95.2148	83.8378	95.2148	82.7457	95.2148	83.7599	95.2148	82.6786	95.2148	83.6702	95.2148	82.6357	95.2148	83.5756	95.2148	82.6178	95.2148	83.4825	95.2148	82.6241	95.2148	83.3952	95.2148	82.6523	95.2148	83.3157	95.2148	82.6989	95.2148	83.2434	95.2148	82.7592	95.2148	83.1759	95.2148	82.828	95.2148	83.11	95.2148	82.9006	95.2148	83.0429	95.2148	82.973
98.1445	83.8878	98.1445	83.7816	98.1445	83.9752	98.1445	83.6619	98.1445	84.0395	98.1445	83.5343	98.1445	84.0769	98.1445	83.4043	98.1445	84.0855	98.1445	83.2772	98.1445	84.0646	98.1445	83.1575	98.1445	84.0153	98.1445	83.0489	98.1445	83.9407	98.1445	82.9544	98.1445	83.8456	98.1445	82.8759	98.1445	83.7362	98.1445	82.8147	98.1445	83.6195	98.1445	82.7714	98.1445	83.5021	98.1445	82.7462	98.1445	83.3897	98.1445	82.7386	98.1445	83.2859	98.1445	82.7476	98.1445	83.1925	98.1445	82.7713	98.1445	83.1094	98.1445	82.8076	98.1445	83.0352	98.1445	82.8538	98.1445	82.9684	98.1445	82.9079
101.074	83.8679	101.074	83.771	101.074	83.9481	101.074	83.6628	101.074	84.0064	101.074	83.5493	101.074	84.0391	101.074	83.4363	101.074	84.0438	101.074	83.3289	101.074	84.02	101.074	83.2314	101.074	83.9692	101.074	83.1468	101.074	83.8948	101.074	83.0766	101.074	83.802	101.074	83.0213	101.074	83.6973	101.074	82.98	101.074	83.5876	101.074	82.9514	101.074	83.4791	101.074	82.9336	101.074	83.377	101.074	82.9251	101.074	83.2847	101.074	82.9244	101.074	83.2037	101.074	82.9309	101.074	83.1347	101.074	82.9443	101.074	83.0771	101.074	82.9648	101.074	83.0303	101.074	82.9932
105.469	83.8294	105.469	83.7123	105.469	83.9303	105.469	83.5865	105.469	84.009	105.469	83.4598	105.469	84.0608	105.469	83.3399	105.469	84.0831	105.469	83.2335	105.469	84.0757	105.469	83.1457	105.469	84.0404	105.469	83.0796	105.469	83.9815	105.469	83.0362	105.469	83.9046	105.469	83.0138	105.469	83.8163	105.469	83.0092	105.469	83.7228	105.469	83.0181	105.469	83.6296	105.469	83.0356	105.469	83.5404	105.469	83.0574	105.469	83.4577	105.469	83.0804	105.469	83.383	105.469	83.1032	105.469	83.3174	105.469	83.1259	105.469	83.2617	105.469	83.1505	105.469	83.216	105.469	83.1796
108.398	83.8633	108.398	83.7448	108.398	83.9622	108.398	83.6138	108.398	84.0358	108.398	83.4781	108.398	84.08	108.398	83.3458	108.398	84.0927	108.398	83.2247	108.398	84.0743	108.398	83.1214	108.398	84.0274	108.398	83.0405	108.398	83.9572	108.398	82.9843	108.398	83.8708	108.398	82.9525	108.398	83.7763	108.398	82.9425	108.398	83.682	108.398	82.9502	108.398	83.5941	108.398	82.9709	108.398	83.5163	108.398	83.0002	108.398	83.4491	108.398	83.0348	108.398	83.3908	108.398	83.0725	108.398	83.3385	108.398	83.1124	108.398	83.2897	108.398	83.1541	108.398	83.243	108.398	83.1977
112.793	83.7449	112.793	83.6182	112.793	83.8482	112.793	83.4756	112.793	83.9224	112.793	83.3254	112.793	83.9636	112.793	83.1767	112.793	83.9702	112.793	83.0391	112.793	83.943	112.793	82.9214	112.793	83.8858	112.793	82.8312	112.793	83.8053	112.793	82.7736	112.793	83.7105	112.793	82.7504	112.793	83.6119	112.793	82.7597	112.793	83.5198	112.793	82.7963	112.793	83.4424	112.793	82.8531	112.793	83.3838	112.793	82.9218	112.793	83.3439	112.793	82.9948	112.793	83.3182	112.793	83.0658	112.793	83.3001	112.793	83.1299	112.793	83.2826	112.793	83.1843	112.793	83.2597	112.793	83.2275
117.188	83.6501	117.188	83.5361	117.188	83.7353	117.188	83.3989	117.188	83.7877	117.188	83.2454	117.188	83.8045	117.188	83.0833	117.188	83.7852	117.188	82.9213	117.188	83.7315	117.188	82.7691	117.188	83.6479	117.188	82.6361	117.188	83.5412	117.188	82.5315	117.188	83.4211	117.188	82.4619	117.188	83.2986	117.188	82.4312	117.188	83.1851	117.188	82.4389	117.188	83.0905	117.188	82.4804	117.188	83.0212	117.188	82.5475	117.188	82.9785	117.188	82.6297	117.188	82.9582	117.188	82.716	117.188	82.9516	117.188	82.7961	117.188	82.9477	117.188	82.8619	117.188	82.9361	117.188	82.9088
120.117	83.5547	120.117	83.4304	120.117	83.6512	120.117	83.2843	120.117	83.715	120.117	83.1233	120.117	83.7426	120.117	82.9551	120.117	83.7328	120.117	82.788	120.117	83.6862	120.117	82.6305	120.117	83.6061	120.117	82.4911	120.117	83.4981	120.117	82.3776	120.117	83.3706	120.117	82.2963	120.117	83.2338	120.117	82.2513	120.117	83.0992	120.117	82.243	120.117	82.9778	120.117	82.2687	120.117	82.8785	120.117	82.3217	120.117	82.8055	120.117	82.3927	120.117	82.7581	120.117	82.471	120.117	82.7299	120.117	82.5462	120.117	82.7107	120.117	82.6101	120.117	82.6898	120.117	82.6579
124.512	83.5937	124.512	83.4813	124.512	83.6777	124.512	83.3474	124.512	83.728	124.512	83.1991	124.512	83.7408	124.512	83.0441	124.512	83.7148	124.512	82.8895	124.512	83.6516	124.512	82.7425	124.512	83.5555	124.512	82.6095	124.512	83.4337	124.512	82.4962	124.512	83.2952	124.512	82.4073	124.512	83.1505	124.512	82.3454	124.512	83.0102	124.512	82.3114	124.512	82.8834	124.512	82.3035	124.512	82.7766	124.512	82.3176	124.512	82.693	124.512	82.348	124.512	82.6318	124.512	82.3875	124.512	82.5888	124.512	82.4296	124.512	82.5575	124.512	82.4688	124.512	82.5307	124.512	82.5024
128.906	83.3344	128.906	83.2377	128.906	83.3964	128.906	83.1118	128.906	83.4203	128.906	82.9637	128.906	83.4047	128.906	82.8013	128.906	83.351	128.906	82.6335	128.906	83.2625	128.906	82.4689	128.906	83.1451	128.906	82.3156	128.906	83.0063	128.906	82.181	128.906	82.8553	128.906	82.0705	128.906	82.7016	128.906	81.988	128.906	82.5549	128.906	81.9348	128.906	82.4232	128.906	81.9097	128.906	82.3128	128.906	81.9091	128.906	82.2266	128.906	81.9271	128.906	82.1644	128.906	81.9566	128.906	82.1224	128.906	81.9903	128.906	82.0941	128.906	82.0223	128.906	82.072	128.906	82.0494
133.301	83.0421	133.301	82.9396	133.301	83.1101	133.301	82.8092	133.301	83.1395	133.301	82.6597	133.301	83.1293	133.301	82.5007	133.301	83.0813	133.301	82.3425	133.301	83.0003	133.301	82.1948	133.301	82.8936	133.301	82.0657	133.301	82.7703	133.301	81.961	133.301	82.6403	133.301	81.8841	133.301	82.5132	133.301	81.8355	133.301	82.3968	133.301	81.8136	133.301	82.2965	133.301	81.8143	133.301	82.2147	133.301	81.8326	133.301	82.1511	133.301	81.8626	133.301	82.1035	133.301	81.8981	133.301	82.0686	133.301	81.9339	133.301	82.0418	133.301	81.9666	133.301	82.0185	133.301	81.9944
139.16	82.7183	139.16	82.6154	139.16	82.7821	139.16	82.4794	139.16	82.8038	139.16	82.3191	139.16	82.7833	139.16	82.146	139.16	82.7233	139.16	81.9732	139.16	82.6294	139.16	81.8142	139.16	82.5098	139.16	81.6811	139.16	82.3755	139.16	81.5831	139.16	82.2395	139.16	81.5246	139.16	82.115	139.16	81.5052	139.16	82.0132	139.16	81.5197	139.16	81.941	139.16	81.56	139.16	81.8993	139.16	81.6165	139.16	81.8831	139.16	81.6798	139.16	81.8835	139.16	81.7421	139.16	81.8904	139.16	81.7974	139.16	81.8947	139.16	81.8417	139.16	81.89	139.16	81.8728
143.555	82.7935	143.555	82.6835	143.555	82.8594	143.555	82.5344	143.555	82.8785	143.555	82.3536	143.555	82.8504	143.555	82.151	143.555	82.777	143.555	81.9392	143.555	82.6633	143.555	81.733	143.555	82.5172	143.555	81.548	143.555	82.3499	143.555	81.3988	143.555	82.1754	143.555	81.2966	143.555	82.0096	143.555	81.2467	143.555	81.8673	143.555	81.2474	143.555	81.7603	143.555	81.2901	143.555	81.6939	143.555	81.3619	143.555	81.6659	143.555	81.4479	143.555	81.667	143.555	81.5341	143.555	81.6839	143.555	81.6093	143.555	81.7023	143.555	81.6657	143.555	81.7102	143.555	81.6993
147.949	82.8802	147.949	82.7824	147.949	82.9345	147.949	82.6457	147.949	82.9427	147.949	82.4762	147.949	82.9038	147.949	82.2813	147.949	82.8199	147.949	82.07	147.949	82.6954	147.949	81.853	147.949	82.538	147.949	81.6427	147.949	82.3581	147.949	81.4524	147.949	82.1684	147.949	81.2952	147.949	81.9831	147.949	81.1816	147.949	81.8165	147.949	81.1175	147.949	81.6802	147.949	81.1024	147.949	81.5814	147.949	81.1292	147.949	81.5207	147.949	81.1859	147.949	81.4917	147.949	81.2582	147.949	81.4824	147.949	81.3318	147.949	81.4789	147.949	81.3954	147.949	81.4682	147.949	81.4416
153.809	82.6791	153.809	82.6104	153.809	82.7015	153.809	82.4982	153.809	82.6765	153.809	82.3472	153.809	82.6052	153.809	82.1642	153.809	82.4908	153.809	81.9574	153.809	82.3387	153.809	81.7373	153.809	82.1565	153.809	81.5161	153.809	81.9546	153.809	81.3077	153.809	81.7457	153.809	81.1266	153.809	81.5447	153.809	80.9856	153.809	81.3675	153.809	80.8937	153.809	81.2284	153.809	80.8535	153.809	81.1371	153.809	80.8603	153.809	81.0949	153.809	80.9034	153.809	81.0929	153.809	80.9678	153.809	81.1143	153.809	81.0374	153.809	81.1391	153.809	81.0975	153.809	81.1501	153.809	81.1369
159.668	82.5616	159.668	82.5022	159.668	82.5749	159.668	82.3998	159.668	82.5418	159.668	82.2605	159.668	82.4654	159.668	82.0921	159.668	82.3526	159.668	81.9038	159.668	82.2134	159.668	81.7053	159.668	82.0598	159.668	81.5067	159.668	81.9044	159.668	81.3179	159.668	81.758	159.668	81.1485	159.668	81.628	159.668	81.0079	159.668	81.5176	159.668	80.904	159.668	81.4268	159.668	80.8427	159.668	81.3539	159.668	80.8252	159.668	81.2967	159.668	80.847	159.668	81.2526	159.668	80.8982	159.668	81.2172	159.668	80.9655	159.668	81.1841	159.668	81.035	159.668	81.1459	159.668	81.0967
165.527	82.3928	165.527	82.313	165.527	82.4211	165.527	82.1868	165.527	82.3962	165.527	82.023	165.527	82.3201	165.527	81.8337	165.527	82.1989	165.527	81.6332	165.527	82.0428	165.527	81.4373	165.527	81.8669	165.527	81.2611	165.527	81.6897	165.527	81.1177	165.527	81.5312	165.527	81.0162	165.527	81.4091	165.527	80.9608	165.527	81.335	165.527	80.9506	165.527	81.3108	165.527	80.9804	165.527	81.329	165.527	81.0419	165.527	81.3744	165.527	81.1251	165.527	81.4288	165.527	81.2189	165.527	81.4746	165.527	81.3126	165.527	81.4988	165.527	81.3954	165.527	81.4938	165.527	81.4582
171.387	82.5452	171.387	82.4777	171.387	82.5674	171.387	82.3696	171.387	82.5414	171.387	82.2271	171.387	82.4673	171.387	82.0578	171.387	82.3483	171.387	81.8698	171.387	82.1917	171.387	81.6716	171.387	82.0082	171.387	81.4725	171.387	81.8118	171.387	81.2828	171.387	81.6176	171.387	81.1139	171.387	81.441	171.387	80.9777	171.387	81.2952	171.387	80.8847	171.387	81.1903	171.387	80.8414	171.387	81.1307	171.387	80.8476	171.387	81.114	171.387	80.8953	171.387	81.1297	171.387	80.9699	171.387	81.1611	171.387	81.053	171.387	81.1893	171.387	81.1269	171.387	81.1981	171.387	81.1777
177.246	82.4095	177.246	82.3399	177.246	82.4221	177.246	82.219	177.246	82.3764	177.246	82.0562	177.246	82.2758	177.246	81.8642	177.246	82.1291	177.246	81.6575	177.246	81.9508	177.246	81.4517	177.246	81.7595	177.246	81.261	177.246	81.5763	177.246	81.0975	177.246	81.4206	177.246	80.9692	177.246	81.3061	177.246	80.8805	177.246	81.2376	177.246	80.8322	177.246	81.2113	177.246	80.8224	177.246	81.2164	177.246	80.847	177.246	81.2387	177.246	80.8995	177.246	81.264	177.246	80.9718	177.246	81.2801	177.246	81.0537	177.246	81.2778	177.246	81.1341	177.246	81.2522	177.246	81.203
183.105	82.5258	183.105	82.4792	183.105	82.5064	183.105	82.3728	183.105	82.4186	183.105	82.2168	183.105	82.2656	183.105	82.0238	183.105	82.0566	183.105	81.8087	183.105	81.8075	183.105	81.5873	183.105	81.5415	183.105	81.3763	183.105	81.2875	183.105	81.1916	183.105	81.0766	183.105	81.0478	183.105	80.9362	183.105	80.9563	183.105	80.8823	183.105	80.9233	183.105	80.9143	183.105	80.9483	183.105	81.0146	183.105	81.0235	183.105	81.1545	183.105	81.1341	183.105	81.3023	183.105	81.2612	183.105	81.4306	183.105	81.3841	183.105	81.5197	183.105	81.484	183.105	81.559	183.105	81.5457
188.965	82.7076	188.965	82.7024	188.965	82.6425	188.965	82.6312	188.965	82.5075	188.965	82.5022	188.965	82.3076	188.965	82.3263	188.965	82.0537	188.965	82.1171	188.965	81.7624	188.965	81.8892	188.965	81.4561	188.965	81.658	188.965	81.162	188.965	81.4389	188.965	80.9095	188.965	81.2457	188.965	80.7252	188.965	81.0906	188.965	80.6275	188.965	80.9824	188.965	80.6205	188.965	80.9259	188.965	80.6917	188.965	80.9201	188.965	80.8148	188.965	80.9579	188.965	80.9568	188.965	81.026	188.965	81.0864	188.965	81.1061	188.965	81.1806	188.965	81.1783	188.965	81.2268	188.965	81.2234
196.289	82.9156	196.289	82.965	196.289	82.7999	196.289	82.9494	196.289	82.6209	196.289	82.8741	196.289	82.3855	196.289	82.7471	196.289	82.1057	196.289	82.5789	196.289	81.799	196.289	82.3811	196.289	81.4883	196.289	82.1664	196.289	81.2005	196.289	81.9478	196.289	80.9632	196.289	81.7388	196.289	80.7996	196.289	81.5535	196.289	80.7234	196.289	81.4048	196.289	80.7347	196.289	81.303	196.289	80.82	196.289	81.2527	196.289	80.954	196.289	81.251	196.289	81.1061	196.289	81.2864	196.289	81.2466	196.289	81.3408	196.289	81.3526	196.289	81.393	196.289	81.4115	196.289	81.422
203.613	83.0793	203.613	83.116	203.613	82.9778	203.613	83.091	203.613	82.811	203.613	83.0099	203.613	82.5821	203.613	82.8802	203.613	82.2993	203.613	82.7109	203.613	81.9772	203.613	82.5121	203.613	81.6382	203.613	82.2955	203.613	81.3109	203.613	82.0745	203.613	81.027	203.613	81.8645	203.613	80.8153	203.613	81.6817	203.613	80.695	203.613	81.5409	203.613	80.6718	203.613	81.4515	203.613	80.7361	203.613	81.4145	203.613	80.866	203.613	81.4212	203.613	81.0316	203.613	81.4549	203.613	81.2012	203.613	81.4944	203.613	81.3476	203.613	81.5183	203.613	81.4525	203.613	81.5083
210.938	83.2609	210.938	83.2852	210.938	83.1613	210.938	83.2396	210.938	82.985	210.938	83.1324	210.938	82.7356	210.938	82.9744	210.938	82.4231	210.938	82.7771	210.938	82.0656	210.938	82.5523	210.938	81.6891	210.938	82.3117	210.938	81.3265	210.938	82.0665	210.938	81.0124	210.938	81.8281	210.938	80.7762	210.938	81.6091	210.938	80.6355	210.938	81.4227	210.938	80.5925	210.938	81.2809	210.938	80.6345	210.938	81.1917	210.938	80.7376	210.938	81.1547	210.938	80.8723	210.938	81.1601	210.938	81.0086	210.938	81.1889	210.938	81.1218	210.938	81.2181	210.938	81.1957	210.938	81.2257
218.262	83.26	218.262	83.3339	218.262	83.1087	218.262	83.3361	218.262	82.8791	218.262	83.2751	218.262	82.5771	218.262	83.1615	218.262	82.2178	218.262	83.0062	218.262	81.8273	218.262	82.8206	218.262	81.4428	218.262	82.6156	218.262	81.1078	218.262	82.402	218.262	80.8624	218.262	82.1918	218.262	80.7308	218.262	81.9986	218.262	80.7137	218.262	81.8371	218.262	80.7902	218.262	81.7209	218.262	80.9283	218.262	81.6572	218.262	81.0968	218.262	81.6431	218.262	81.2708	218.262	81.6642	218.262	81.4318	218.262	81.698	218.262	81.5654	218.262	81.7205	218.262	81.6608	218.262	81.7118
225.586	83.5005	225.586	83.5972	225.586	83.3131	225.586	83.6089	225.586	83.0347	225.586	83.5454	225.586	82.6721	225.586	83.4201	225.586	82.2414	225.586	83.2477	225.586	81.7703	225.586	83.0436	225.586	81.3005	225.586	82.8215	225.586	80.8851	225.586	82.5927	225.586	80.5805	225.586	82.3663	225.586	80.4288	225.586	82.1505	225.586	80.4396	225.586	81.9549	225.586	80.585	225.586	81.792	225.586	80.812	225.586	81.675	225.586	81.0641	225.586	81.6125	225.586	81.2966	225.586	81.6022	225.586	81.4824	225.586	81.6288	225.586	81.6094	225.586	81.6673	225.586	81.6765	225.586	81.6907
232.91	83.4839	232.91	83.5892	232.91	83.2853	232.91	83.606	232.91	82.9928	232.91	83.5422	232.91	82.6112	232.91	83.4089	232.91	82.1528	232.91	83.2196	232.91	81.6415	232.91	82.9906	232.91	81.1159	232.91	82.7407	232.91	80.6317	232.91	82.49	232.91	80.2556	232.91	82.2576	232.91	80.0477	232.91	82.0578	232.91	80.0362	232.91	81.8982	232.91	80.2005	232.91	81.7797	232.91	80.4794	232.91	81.6989	232.91	80.7986	232.91	81.6512	232.91	81.0958	232.91	81.6307	232.91	81.333	232.91	81.6294	232.91	81.4961	232.91	81.6347	232.91	81.5894	232.91	81.6285
241.699	83.3821	241.699	83.4363	241.699	83.2383	241.699	83.4085	241.699	83.0014	241.699	83.309	241.699	82.6728	241.699	83.1499	241.699	82.2604	241.699	82.9436	241.699	81.7814	241.699	82.702	241.699	81.2653	241.699	82.4365	241.699	80.7571	241.699	82.1594	241.699	80.3165	241.699	81.8853	241.699	80.0085	241.699	81.6317	241.699	79.8828	241.699	81.4183	241.699	79.9487	241.699	81.2632	241.699	80.167	241.699	81.1779	241.699	80.4672	241.699	81.1618	241.699	80.7766	241.699	81.2002	241.699	81.041	241.699	81.2673	241.699	81.2302	241.699	81.3318	241.699	81.3353	241.699	81.3631
250.488	83.4937	250.488	83.5592	250.488	83.3378	250.488	83.5385	250.488	83.0902	250.488	83.4381	250.488	82.7538	250.488	83.2657	250.488	82.3371	250.488	83.0297	250.488	81.8569	250.488	82.7396	250.488	81.3413	250.488	82.4078	250.488	80.8318	250.488	82.0514	250.488	80.3811	250.488	81.6934	250.488	80.0458	250.488	81.3612	250.488	79.8707	250.488	81.0831	250.488	79.871	250.488	80.8829	250.488	80.0236	250.488	80.7739	250.488	80.2736	250.488	80.7552	250.488	80.554	250.488	80.8097	250.488	80.8047	250.488	80.9069	250.488	80.9841	250.488	81.0084	250.488	81.0734	250.488	81.0748
259.277	83.6267	259.277	83.6935	259.277	83.4877	259.277	83.6922	259.277	83.2734	259.277	83.626	259.277	82.9832	259.277	83.4961	259.277	82.6208	259.277	83.3016	259.277	82.1952	259.277	83.0419	259.277	81.723	259.277	82.721	259.277	81.2302	259.277	82.3538	259.277	80.7546	259.277	81.9697	259.277	80.3483	259.277	81.6109	259.277	80.0721	259.277	81.3222	259.277	79.9758	259.277	81.135	259.277	80.0689	259.277	81.055	259.277	80.3074	259.277	81.0627	259.277	80.6123	259.277	81.1257	259.277	80.9045	259.277	81.2089	259.277	81.1293	259.277	81.2794	259.277	81.2627	259.277	81.3064
268.066	83.3676	268.066	83.4618	268.066	83.188	268.066	83.4699	268.066	82.927	268.066	83.3949	268.066	82.5921	268.066	83.2414	268.066	82.1949	268.066	83.0143	268.066	81.7522	268.066	82.7178	268.066	81.2892	268.066	82.3568	268.066	80.84	268.066	81.9408	268.066	80.4468	268.066	81.4898	268.066	80.1522	268.066	81.0386	268.066	79.9889	268.066	80.6376	268.066	79.9666	268.066	80.3424	268.066	80.0652	268.066	80.1926	268.066	80.2404	268.066	80.1906	268.066	80.4379	268.066	80.2989	268.066	80.6102	268.066	80.4588	268.066	80.7241	268.066	80.6137	268.066	80.7628	268.066	80.7229
276.855	83.217	276.855	83.2489	276.855	83.1182	276.855	83.2217	276.855	82.9466	276.855	83.1439	276.855	82.6982	276.855	83.0216	276.855	82.3725	276.855	82.8553	276.855	81.9766	276.855	82.6378	276.855	81.5301	276.855	82.3566	276.855	81.0683	276.855	81.9994	276.855	80.6412	276.855	81.5613	276.855	80.3041	276.855	81.0546	276.855	80.1029	276.855	80.5174	276.855	80.0579	276.855	80.0204	276.855	80.1539	276.855	79.6579	276.855	80.3423	276.855	79.512	276.855	80.5546	276.855	79.6024	276.855	80.7206	276.855	79.8683	276.855	80.7842	276.855	80.2044	276.855	80.7142	276.855	80.5098
287.109	82.7473	287.109	82.8454	287.109	82.5593	287.109	82.8586	287.109	82.2872	287.109	82.8009	287.109	81.9482	287.109	82.6912	287.109	81.5681	287.109	82.55	287.109	81.1748	287.109	82.3941	287.109	80.7917	287.109	82.2311	287.109	80.4356	287.109	82.0562	287.109	80.1218	287.109	81.8527	287.109	79.8742	287.109	81.6015	287.109	79.7291	287.109	81.2956	287.109	79.7223	287.109	80.9545	287.109	79.86	287.109	80.6301	287.109	80.1004	287.109	80.3926	287.109	80.3677	287.109	80.2951	287.109	80.5863	287.109	80.3389	287.109	80.7064	287.109	80.4721	287.109	80.712	287.109	80.6191
297.363	83.3397	297.363	83.563	297.363	83.0049	297.363	83.6818	297.363	82.5588	297.363	83.7041	297.363	82.0156	297.363	83.6346	297.363	81.411	297.363	83.4729	297.363	80.8059	297.363	83.2157	297.363	80.28	297.363	82.8615	297.363	79.9082	297.363	82.4184	297.363	79.726	297.363	81.9108	297.363	79.7147	297.363	81.3803	297.363	79.8215	297.363	80.8775	297.363	79.9916	297.363	80.4478	297.363	80.184	297.363	80.1214	297.363	80.3671	297.363	79.9163	297.363	80.5097	297.363	79.8432	297.363	80.581	297.363	79.8998	297.363	80.5598	297.363	80.0573	297.363	80.4445	297.363	80.2602
307.617	83.0888	307.617	83.1576	307.617	82.9287	307.617	83.1526	307.617	82.6636	307.617	83.0946	307.617	82.2835	307.617	83.0044	307.617	81.7861	307.617	82.8973	307.617	81.1873	307.617	82.7778	307.617	80.5375	307.617	82.6367	307.617	79.9315	307.617	82.4531	307.617	79.4916	307.617	82.2004	307.617	79.3076	307.617	81.8566	307.617	79.3745	307.617	81.4163	307.617	79.6029	307.617	80.9046	307.617	79.8872	307.617	80.3866	307.617	80.1536	307.617	79.9612	307.617	80.359	307.617	79.7248	307.617	80.4731	307.617	79.7152	307.617	80.4722	307.617	79.8846	307.617	80.3493	307.617	80.1305
319.336	83.3414	319.336	83.3476	319.336	83.2258	319.336	83.2589	319.336	82.9911	319.336	83.0939	319.336	82.6328	319.336	82.8733	319.336	82.1495	319.336	82.6171	319.336	81.5427	319.336	82.3435	319.336	80.82	319.336	82.0667	319.336	80.0086	319.336	81.7948	319.336	79.1854	319.336	81.5275	319.336	78.5125	319.336	81.258	319.336	78.2096	319.336	80.9785	319.336	78.3874	319.336	80.6912	319.336	78.9094	319.336	80.4152	319.336	79.513	319.336	80.1861	319.336	80.0006	319.336	80.0433	319.336	80.2906	319.336	80.0103	319.336	80.3862	319.336	80.0795	319.336	80.3362	319.336	80.2096
329.59	82.9899	329.59	82.9993	329.59	82.8835	329.59	82.9187	329.59	82.6799	329.59	82.7616	329.59	82.383	329.59	82.5454	329.59	81.9989	329.59	82.2871	329.59	81.5352	329.59	81.9982	329.59	81.0028	329.59	81.6842	329.59	80.4172	329.59	81.3469	329.59	79.806	329.59	80.9894	329.59	79.2227	329.59	80.6205	329.59	78.7644	329.59	80.2571	329.59	78.5552	329.59	79.9244	329.59	78.6636	329.59	79.6527	329.59	79.0187	329.59	79.4736	329.59	79.4485	329.59	79.412	329.59	79.7923	329.59	79.4732	329.59	79.9647	329.59	79.6301	329.59	79.9578	329.59	79.8197
341.309	83.2806	341.309	83.3245	341.309	83.1255	341.309	83.2659	341.309	82.8576	341.309	83.1172	341.309	82.4852	341.309	82.8919	341.309	82.0288	341.309	82.6023	341.309	81.5204	341.309	82.2601	341.309	80.9979	341.309	81.8777	341.309	80.493	341.309	81.4684	341.309	80.0243	341.309	81.0445	341.309	79.6075	341.309	80.6167	341.309	79.2841	341.309	80.2018	341.309	79.1338	341.309	79.835	341.309	79.2262	341.309	79.5759	341.309	79.5382	341.309	79.4863	341.309	79.9452	341.309	79.5867	341.309	80.3009	341.309	79.8316	341.309	80.5078	341.309	80.1308	341.309	80.5321	341.309	80.3897
353.027	82.9562	353.027	82.9528	353.027	82.859	353.027	82.869	353.027	82.6474	353.027	82.7274	353.027	82.3184	353.027	82.5473	353.027	81.882	353.027	82.3411	353.027	81.362	353.027	82.1131	353.027	80.7937	353.027	81.8601	353.027	80.2192	353.027	81.5741	353.027	79.6808	353.027	81.244	353.027	79.2212	353.027	80.8598	353.027	78.8911	353.027	80.4185	353.027	78.7493	353.027	79.938	353.027	78.8326	353.027	79.4735	353.027	79.1078	353.027	79.1219	353.027	79.4659	353.027	78.9847	353.027	79.7742	353.027	79.0945	353.027	79.9322	353.027	79.3743	353.027	79.8964	353.027	79.6845
366.211	83.3281	366.211	83.4677	366.211	83.0636	366.211	83.4877	366.211	82.6756	366.211	83.3991	366.211	82.1705	366.211	83.2152	366.211	81.5603	366.211	82.9494	366.211	80.8716	366.211	82.614	366.211	80.1638	366.211	82.2204	366.211	79.5405	366.211	81.7782	366.211	79.1222	366.211	81.294	366.211	78.9739	366.211	80.7733	366.211	79.0545	366.211	80.2271	366.211	79.2581	366.211	79.6802	366.211	79.4902	366.211	79.1781	366.211	79.6946	366.211	78.7874	366.211	79.8355	366.211	78.5825	366.211	79.8764	366.211	78.6107	366.211	79.7829	366.211	78.85	366.211	79.5454	366.211	79.203
379.395	83.2943	379.395	83.3249	379.395	83.1803	379.395	83.289	379.395	82.9678	379.395	83.2004	379.395	82.6454	379.395	83.0668	379.395	82.2074	379.395	82.8885	379.395	81.6545	379.395	82.6634	379.395	80.9938	379.395	82.394	379.395	80.2378	379.395	82.0898	379.395	79.4178	379.395	81.7627	379.395	78.6329	379.395	81.4176	379.395	78.1188	379.395	81.0472	379.395	78.1684	379.395	80.6404	379.395	78.7986	379.395	80.2037	379.395	79.6612	379.395	79.7854	379.395	80.3843	379.395	79.4849	379.395	80.7756	379.395	79.4199	379.395	80.7977	379.395	79.6413	379.395	80.5152	379.395	80.0667
392.578	82.9947	392.578	82.896	392.578	82.9829	392.578	82.7045	392.578	82.8494	392.578	82.4481	392.578	82.5856	392.578	82.1645	392.578	82.1851	392.578	81.8943	392.578	81.6547	392.578	81.6674	392.578	81.0301	392.578	81.4873	392.578	80.3828	392.578	81.3252	392.578	79.7951	392.578	81.1303	392.578	79.3072	392.578	80.8552	392.578	78.9002	392.578	80.482	392.578	78.5603	392.578	80.0436	392.578	78.3622	392.578	79.6273	392.578	78.4383	392.578	79.3439	392.578	78.8026	392.578	79.2613	392.578	79.2737	392.578	79.3586	392.578	79.6343	392.578	79.5482	392.578	79.7791	392.578	79.7231
405.762	83.506	405.762	83.4154	405.762	83.4835	405.762	83.2297	405.762	83.327	405.762	82.9663	405.762	83.0101	405.762	82.6432	405.762	82.5038	405.762	82.2788	405.762	81.7867	405.762	81.8908	405.762	80.868	405.762	81.4939	405.762	79.8216	405.762	81.0966	405.762	78.8164	405.762	80.6961	405.762	78.0824	405.762	80.2779	405.762	77.7626	405.762	79.8277	405.762	77.8036	405.762	79.3557	405.762	78.0613	405.762	78.923	405.762	78.4374	405.762	78.641	405.762	78.8713	405.762	78.6099	405.762	79.2794	405.762	78.8272	405.762	79.5574	405.762	79.1715	405.762	79.6289	405.762	79.4807
420.41	83.372	420.41	83.3635	420.41	83.2589	420.41	83.2431	420.41	83.0284	420.41	83.0269	420.41	82.7005	420.41	82.7312	420.41	82.3011	420.41	82.3728	420.41	81.8431	420.41	81.9782	420.41	81.3103	420.41	81.5908	420.41	80.6599	420.41	81.262	420.41	79.8526	420.41	81.015	420.41	78.9218	420.41	80.8063	420.41	78.0741	420.41	80.5326	420.41	77.6925	420.41	80.0861	420.41	77.9779	420.41	79.427	420.41	78.6423	420.41	78.6519	420.41	79.2577	420.41	78.0295	420.41	79.5927	420.41	77.8673	420.41	79.594	420.41	78.2038	420.41	79.2936	420.41	78.7743
435.059	83.356	435.059	83.3504	435.059	83.2188	435.059	83.213	435.059	82.9408	435.059	82.9665	435.059	82.5364	435.059	82.6364	435.059	82.0321	435.059	82.2412	435.059	81.468	435.059	81.7869	435.059	80.8943	435.059	81.2767	435.059	80.3538	435.059	80.734	435.059	79.8602	435.059	80.22	435.059	79.4029	435.059	79.8182	435.059	78.9959	435.059	79.5718	435.059	78.7248	435.059	79.431	435.059	78.7105	435.059	79.2867	435.059	78.9736	435.059	79.0746	435.059	79.3687	435.059	78.8519	435.059	79.6904	435.059	78.7741	435.059	79.7953	435.059	78.9495	435.059	79.6436	435.059	79.3049
451.172	83.2688	451.172	83.0411	451.172	83.3715	451.172	82.7146	451.172	83.3334	451.172	82.3342	451.172	83.1383	451.172	81.9573	451.172	82.769	451.172	81.6309	451.172	82.2201	451.172	81.3657	451.172	81.5184	451.172	81.1288	451.172	80.7343	451.172	80.865	451.172	79.9578	451.172	80.5303	451.172	79.2437	451.172	80.1161	451.172	78.6101	451.172	79.6491	451.172	78.1639	451.172	79.1649	451.172	78.1662	451.172	78.6833	451.172	78.7183	451.172	78.2373	451.172	79.4921	451.172	77.952	451.172	80.0634	451.172	78.034	451.172	80.2141	451.172	78.5519	451.172	79.9196	451.172	79.288
465.82	83.5383	465.82	83.3473	465.82	83.5751	465.82	83.0112	465.82	83.4721	465.82	82.5674	465.82	83.2565	465.82	82.0794	465.82	82.9502	465.82	81.6278	465.82	82.5509	465.82	81.2881	465.82	82.025	465.82	81.0896	465.82	81.3225	465.82	80.9788	465.82	80.4166	465.82	80.8284	465.82	79.3668	465.82	80.4981	465.82	78.3822	465.82	79.9072	465.82	77.7807	465.82	79.1038	465.82	77.751	465.82	78.3038	465.82	78.1743	465.82	77.8124	465.82	78.7722	465.82	77.7893	465.82	79.294	465.82	78.1423	465.82	79.5717	465.82	78.674	465.82	79.5295	465.82	79.1923
483.398	83.3028	483.398	83.0914	483.398	83.3232	483.398	82.7331	483.398	83.1393	483.398	82.297	483.398	82.7661	483.398	81.8624	483.398	82.2387	483.398	81.4998	483.398	81.6147	483.398	81.2515	483.398	80.9901	483.398	81.1204	483.398	80.4857	483.398	81.0706	483.398	80.1487	483.398	81.0372	483.398	79.868	483.398	80.9396	483.398	79.4599	483.398	80.6939	483.398	78.8524	483.398	80.2259	483.398	78.2497	483.398	79.49	483.398	78.1094	483.398	78.5188	483.398	78.5887	483.398	77.5416	483.398	79.2213	483.398	77.0742	483.398	79.4982	483.398	77.4937	483.398	79.2114	483.398	78.4234
499.512	83.8054	499.512	83.661	499.512	83.7298	499.512	83.3205	499.512	83.4468	499.512	82.8391	499.512	82.9916	499.512	82.2818	499.512	82.3962	499.512	81.6996	499.512	81.6702	499.512	81.1284	499.512	80.8096	499.512	80.6113	499.512	79.8409	499.512	80.2085	499.512	78.8792	499.512	79.9606	499.512	78.1504	499.512	79.8348	499.512	77.8855	499.512	79.7228	499.512	78.1197	499.512	79.4998	499.512	78.6765	499.512	79.0861	499.512	79.3372	499.512	78.494	499.512	79.9201	499.512	77.8935	499.512	80.2659	499.512	77.6545	499.512	80.2412	499.512	78.0782	499.512	79.7784	499.512	78.9521
517.09	83.7078	517.09	83.4223	517.09	83.7973	517.09	82.9842	517.09	83.695	517.09	82.4709	517.09	83.4417	517.09	81.9561	517.09	83.0904	517.09	81.4756	517.09	82.675	517.09	81.0288	517.09	82.1847	517.09	80.6119	517.09	81.5596	517.09	80.2416	517.09	80.7136	517.09	79.9471	517.09	79.5931	517.09	79.7338	517.09	78.316	517.09	79.5488	517.09	77.4043	517.09	79.2824	517.09	77.5575	517.09	78.8193	517.09	78.6026	517.09	78.1411	517.09	79.7374	517.09	77.4937	517.09	80.4792	517.09	77.438	517.09	80.6718	517.09	78.2397	517.09	80.2869	517.09	79.3875
536.133	83.8937	536.133	83.5544	536.133	84.0205	536.133	83.0637	536.133	83.9099	536.133	82.4913	536.133	83.5739	536.133	81.8687	536.133	83.0501	536.133	81.1736	536.133	82.4003	536.133	80.3779	536.133	81.7218	536.133	79.5232	536.133	81.1286	536.133	78.7675	536.133	80.6519	536.133	78.3268	536.133	80.1437	536.133	78.2698	536.133	79.3623	536.133	78.3902	536.133	78.2603	536.133	78.3731	536.133	77.4395	536.133	78.0175	536.133	77.9413	536.133	77.3353	536.133	79.3617	536.133	76.6327	536.133	80.4846	536.133	76.5536	536.133	80.7929	536.133	77.5143	536.133	80.2416	536.133	79.0024
555.176	84.0323	555.176	83.8708	555.176	83.9705	555.176	83.5403	555.176	83.6622	555.176	83.0873	555.176	83.1493	555.176	82.5343	555.176	82.5371	555.176	81.8993	555.176	81.9342	555.176	81.2225	555.176	81.3734	555.176	80.558	555.176	80.8206	555.176	79.9305	555.176	80.2748	555.176	79.3252	555.176	79.7979	555.176	78.7688	555.176	79.3768	555.176	78.4131	555.176	78.8332	555.176	78.3952	555.176	78.0471	555.176	78.5351	555.176	77.4001	555.176	78.4206	555.176	77.6699	555.176	77.8012	555.176	78.6084	555.176	76.9452	555.176	79.1844	555.176	76.8275	555.176	78.888	555.176	77.8296
574.219	84.4268	574.219	84.0835	574.219	84.538	574.219	83.5939	574.219	84.3697	574.219	83.0431	574.219	83.9198	574.219	82.4779	574.219	83.2156	574.219	81.9145	574.219	82.3154	574.219	81.3631	574.219	81.3518	574.219	80.826	574.219	80.5604	574.219	80.2821	574.219	80.1361	574.219	79.6951	574.219	80.005	574.219	79.0618	574.219	79.8977	574.219	78.4623	574.219	79.6056	574.219	77.9946	574.219	79.1232	574.219	77.5799	574.219	78.7148	574.219	76.9298	574.219	78.7315	574.219	75.8153	574.219	79.0509	574.219	74.6214	574.219	79.0765	574.219	74.8514	574.219	78.3128	574.219	76.6593
594.727	84.6583	594.727	84.5753	594.727	84.4814	594.727	84.2601	594.727	84.0762	594.727	83.7656	594.727	83.5314	594.727	83.1429	594.727	82.9338	594.727	82.4451	594.727	82.2839	594.727	81.7381	594.727	81.4788	594.727	81.0789	594.727	80.3981	594.727	80.4755	594.727	79.0209	594.727	79.8831	594.727	77.5368	594.727	79.2444	594.727	76.4245	594.727	78.5198	594.727	76.2436	594.727	77.6953	594.727	77.0617	594.727	76.7948	594.727	78.3893	594.727	75.8912	594.727	79.6377	594.727	75.1479	594.727	80.371	594.727	75.0202	594.727	80.345	594.727	76.0746	594.727	79.4797	594.727	77.8875
615.234	85.1011	615.234	84.8979	615.234	84.9738	615.234	84.4609	615.234	84.46	615.234	83.8652	615.234	83.5809	615.234	83.12	615.234	82.4411	615.234	82.2141	615.234	81.2032	615.234	81.2254	615.234	80.035	615.234	80.3859	615.234	79.0671	615.234	79.9698	615.234	78.3689	615.234	80.0211	615.234	77.9115	615.234	80.2804	615.234	77.5182	615.234	80.4032	615.234	76.8542	615.234	80.146	615.234	75.5345	615.234	79.3962	615.234	73.6217	615.234	78.0702	615.234	72.906	615.234	75.9167	615.234	74.2662	615.234	72.3433	615.234	75.0655	615.234	67.8704	615.234	73.9236	615.234	70.3589
637.207	84.3825	637.207	84.0329	637.207	84.4608	637.207	83.492	637.207	84.2009	637.207	82.7864	637.207	83.5994	637.207	81.8728	637.207	82.7152	637.207	80.6942	637.207	81.6272	637.207	79.2638	637.207	80.4207	637.207	77.7541	637.207	79.262	637.207	76.5808	637.207	78.4165	637.207	76.281	637.207	78.0002	637.207	76.9278	637.207	77.8025	637.207	77.9339	637.207	77.5225	637.207	78.7281	637.207	77.0011	637.207	79.0778	637.207	76.2318	637.207	78.9283	637.207	75.3613	637.207	78.2157	637.207	74.6414	637.207	76.8319	637.207	74.0361	637.207	74.8797	637.207	73.3469	637.207	73.3351
659.18	84.1476	659.18	83.7377	659.18	84.403	659.18	83.2787	659.18	84.4169	659.18	82.8048	659.18	84.1594	659.18	82.2332	659.18	83.6374	659.18	81.4441	659.18	82.8568	659.18	80.4056	659.18	81.8175	659.18	79.2067	659.18	80.565	659.18	77.9681	659.18	79.2499	659.18	76.7988	659.18	78.0932	659.18	75.9655	659.18	77.2838	659.18	75.8219	659.18	76.9793	659.18	76.29	659.18	77.2125	659.18	76.9494	659.18	77.6425	659.18	77.4278	659.18	77.8058	659.18	77.4118	659.18	77.4796	659.18	76.6863	659.18	76.662	659.18	75.4648	659.18	75.5331	659.18	74.8315
682.617	84.32	682.617	83.907	682.617	84.5183	682.617	83.4133	682.617	84.4003	682.617	82.8794	682.617	83.9589	682.617	82.2292	682.617	83.255	682.617	81.3976	682.617	82.3437	682.617	80.4135	682.617	81.2157	682.617	79.3532	682.617	79.8465	682.617	78.2857	682.617	78.4006	682.617	77.2994	682.617	77.338	682.617	76.5187	682.617	76.9045	682.617	76.041	682.617	76.5703	682.617	75.9125	682.617	75.8673	682.617	76.1597	682.617	75.3963	682.617	76.6407	682.617	75.9522	682.617	76.9406	682.617	76.6852	682.617	76.6786	682.617	76.6471	682.617	75.9214	682.617	75.9233	682.617	75.4445
707.52	84.227	707.52	83.7763	707.52	84.5458	707.52	83.2998	707.52	84.5808	707.52	82.7779	707.52	84.2158	707.52	82.0962	707.52	83.4142	707.52	81.1799	707.52	82.2807	707.52	80.121	707.52	81.1047	707.52	79.1693	707.52	80.1158	707.52	78.4846	707.52	79.1448	707.52	77.8952	707.52	77.9198	707.52	77.1297	707.52	76.8114	707.52	76.3121	707.52	76.819	707.52	75.8954	707.52	77.5581	707.52	75.8573	707.52	77.9503	707.52	75.7615	707.52	78.0393	707.52	75.4424	707.52	78.328	707.52	75.1108	707.52	78.5005	707.52	75.3562	707.52	77.9018	707.52	76.5566
732.422	83.9644	732.422	83.5542	732.422	84.4128	732.422	83.2751	732.422	84.7446	732.422	83.0103	732.422	84.8432	732.422	82.4883	732.422	84.5871	732.422	81.4703	732.422	83.8342	732.422	79.9305	732.422	82.5634	732.422	78.2176	732.422	81.0887	732.422	76.9669	732.422	80.0067	732.422	76.5216	732.422	79.4225	732.422	76.4577	732.422	78.5988	732.422	76.0991	732.422	77.1957	732.422	75.4725	732.422	76.4858	732.422	75.4021	732.422	77.5643	732.422	76.0776	732.422	78.8198	732.422	76.5462	732.422	79.1307	732.422	76.1157	732.422	78.366	732.422	75.025	732.422	76.696	732.422	74.9874
757.324	84.503	757.324	83.9856	757.324	84.8083	757.324	83.2863	757.324	84.7964	757.324	82.3122	757.324	84.3772	757.324	80.9721	757.324	83.5413	757.324	79.4572	757.324	82.3924	757.324	78.396	757.324	81.1121	757.324	78.2048	757.324	79.8765	757.324	78.3584	757.324	78.864	757.324	78.2698	757.324	78.2867	757.324	77.8465	757.324	78.0443	757.324	77.1303	757.324	77.5235	757.324	76.0418	757.324	76.1743	757.324	74.6463	757.324	74.681	757.324	73.7816	757.324	75.1506	757.324	74.1174	757.324	76.2965	757.324	74.576	757.324	76.2572	757.324	74.4108	757.324	75.171	757.324	74.2887
785.156	84.2577	785.156	83.6687	785.156	84.7422	785.156	82.9698	785.156	85.0264	785.156	82.0302	785.156	85.0405	785.156	80.81	785.156	84.7087	785.156	79.5863	785.156	83.8768	785.156	78.7176	785.156	82.4453	785.156	78.1703	785.156	80.5681	785.156	77.7899	785.156	78.6076	785.156	77.5431	785.156	76.8947	785.156	77.3254	785.156	76.1032	785.156	76.9599	785.156	76.9224	785.156	76.4523	785.156	77.8678	785.156	76.1385	785.156	77.8718	785.156	76.2043	785.156	77.7331	785.156	76.1557	785.156	78.272	785.156	75.2706	785.156	78.2706	785.156	73.5701	785.156	76.6163	785.156	73.8684
811.523	84.6919	811.523	84.0744	811.523	84.9512	811.523	83.0843	811.523	84.9748	811.523	81.8398	811.523	84.8409	811.523	80.5373	811.523	84.4405	811.523	79.4535	811.523	83.5628	811.523	78.8755	811.523	82.2308	811.523	78.706	811.523	80.931	811.523	78.4103	811.523	80.1331	811.523	77.5711	811.523	79.4889	811.523	76.2973	811.523	78.1007	811.523	75.1802	811.523	75.7448	811.523	74.4382	811.523	74.5446	811.523	73.5327	811.523	76.0673	811.523	72.262	811.523	77.7322	811.523	72.0904	811.523	78.3855	811.523	73.6394	811.523	77.9348	811.523	74.9082	811.523	76.712	811.523	75.624
840.82	84.6296	840.82	83.4865	840.82	85.3179	840.82	82.3477	840.82	85.3011	840.82	81.3588	840.82	84.7154	840.82	80.4488	840.82	83.908	840.82	79.9476	840.82	83.0792	840.82	79.8786	840.82	82.121	840.82	79.5213	840.82	80.9899	840.82	78.6831	840.82	80.0007	840.82	77.5984	840.82	79.1845	840.82	76.4159	840.82	78.2454	840.82	75.4224	840.82	77.3955	840.82	75.0838	840.82	76.6928	840.82	75.626	840.82	75.4685	840.82	76.062	840.82	74.5262	840.82	75.6048	840.82	75.7283	840.82	74.5504	840.82	76.7762	840.82	74.1085	840.82	76.3411	840.82	75.0151
870.117	84.3123	870.117	83.1621	870.117	85.1123	870.117	82.023	870.117	85.3902	870.117	81.095	870.117	85.2895	870.117	80.5877	870.117	85.0306	870.117	80.7046	870.117	84.5427	870.117	80.9609	870.117	83.5193	870.117	80.6927	870.117	81.8662	870.117	79.9007	870.117	80.0125	870.117	79.136	870.117	78.7849	870.117	78.4635	870.117	77.9047	870.117	77.0564	870.117	76.6808	870.117	74.5253	870.117	76.4053	870.117	73.1716	870.117	77.5976	870.117	74.4345	870.117	78.4379	870.117	75.1488	870.117	78.3967	870.117	74.1391	870.117	77.5121	870.117	71.9999	870.117	75.4303	870.117	72.4218
900.879	84.424	900.879	83.7485	900.879	85.2013	900.879	83.0796	900.879	85.6656	900.879	82.226	900.879	85.4725	900.879	81.6439	900.879	84.5949	900.879	81.5369	900.879	83.3805	900.879	81.1648	900.879	82.3188	900.879	80.0772	900.879	81.446	900.879	78.7271	900.879	80.4137	900.879	77.9125	900.879	79.1961	900.879	77.7811	900.879	78.1428	900.879	77.6955	900.879	77.2537	900.879	76.8968	900.879	76.0194	900.879	75.2511	900.879	74.7091	900.879	73.9905	900.879	75.4439	900.879	74.8123	900.879	77.1515	900.879	75.5002	900.879	77.4224	900.879	74.6148	900.879	75.8842	900.879	74.013
933.105	84.384	933.105	83.2188	933.105	85.4497	933.105	82.4113	933.105	85.9244	933.105	82.0075	933.105	85.601	933.105	81.7014	933.105	84.7633	933.105	81.2629	933.105	83.9419	933.105	80.6761	933.105	83.0675	933.105	79.9	933.105	81.5759	933.105	78.6193	933.105	80.0124	933.105	77.0654	933.105	79.7577	933.105	76.6458	933.105	79.8726	933.105	77.0693	933.105	78.7929	933.105	76.9763	933.105	77.6001	933.105	75.3181	933.105	78.7278	933.105	73.6376	933.105	79.4419	933.105	75.3078	933.105	78.8671	933.105	76.0243	933.105	77.9057	933.105	74.0719	933.105	75.9189	933.105	72.7683
965.332	84.4754	965.332	83.5463	965.332	85.4894	965.332	82.8153	965.332	85.9694	965.332	82.0345	965.332	85.5963	965.332	81.4842	965.332	84.6367	965.332	81.3094	965.332	83.7566	965.332	80.8915	965.332	83.0455	965.332	79.8993	965.332	81.5115	965.332	78.7206	965.332	78.5064	965.332	77.9085	965.332	75.9629	965.332	77.3735	965.332	77.004	965.332	77.2283	965.332	77.8176	965.332	77.1351	965.332	75.6476	965.332	75.7122	965.332	72.9526	965.332	72.1182	965.332	76.2514	965.332	69.4707	965.332	78.2474	965.332	72.4633	965.332	77.8809	965.332	74.0544	965.332	76.0494	965.332	74.4842
1,000.49	84.0519	1,000.49	83.5152	1,000.49	85.1999	1,000.49	83.2299	1,000.49	86.2118	1,000.49	82.7885	1,000.49	86.3933	1,000.49	82.4102	1,000.49	85.7481	1,000.49	81.826	1,000.49	84.5795	1,000.49	80.5772	1,000.49	83.132	1,000.49	79.4113	1,000.49	81.5826	1,000.49	79.3975	1,000.49	80.3231	1,000.49	79.6335	1,000.49	79.4812	1,000.49	78.7312	1,000.49	78.9452	1,000.49	76.9385	1,000.49	78.3368	1,000.49	76.2526	1,000.49	77.2939	1,000.49	76.1337	1,000.49	77.1628	1,000.49	74.3672	1,000.49	78.4664	1,000.49	73.6288	1,000.49	79.6373	1,000.49	75.9277	1,000.49	79.4543	1,000.49	75.8515	1,000.49	77.0195	1,000.49	74.2078
1,035.64	84.048	1,035.64	83.13	1,035.64	85.6175	1,035.64	82.8088	1,035.64	86.6413	1,035.64	82.578	1,035.64	86.6438	1,035.64	82.6084	1,035.64	86.0085	1,035.64	82.5705	1,035.64	85.1124	1,035.64	81.2838	1,035.64	83.544	1,035.64	77.886	1,035.64	80.6431	1,035.64	73.9387	1,035.64	77.884	1,035.64	73.4875	1,035.64	79.2604	1,035.64	73.9259	1,035.64	80.4814	1,035.64	74.6352	1,035.64	78.8087	1,035.64	77.607	1,035.64	75.5089	1,035.64	78.9459	1,035.64	74.5019	1,035.64	76.7789	1,035.64	77.4178	1,035.64	72.5573	1,035.64	79.7023	1,035.64	75.0122	1,035.64	79.2804	1,035.64	75.3078	1,035.64	75.1561	1,035.64	70.9257
1,072.27	83.4581	1,072.27	83.6091	1,072.27	84.2581	1,072.27	83.5195	1,072.27	85.8126	1,072.27	83.61	1,072.27	86.564	1,072.27	83.8331	1,072.27	86.1037	1,072.27	82.6678	1,072.27	84.8595	1,072.27	80.6361	1,072.27	83.5946	1,072.27	79.9288	1,072.27	82.1366	1,072.27	79.3153	1,072.27	80.3868	1,072.27	75.6869	1,072.27	77.974	1,072.27	74.9948	1,072.27	77.792	1,072.27	74.9802	1,072.27	78.9524	1,072.27	72.6004	1,072.27	78.4343	1,072.27	73.3493	1,072.27	78.1741	1,072.27	76.3128	1,072.27	78.8336	1,072.27	74.7365	1,072.27	79.573	1,072.27	72.6886	1,072.27	78.308	1,072.27	74.7471	1,072.27	73.1161	1,072.27	72.8543
1,108.89	83.8435	1,108.89	83.9377	1,108.89	84.6249	1,108.89	83.9451	1,108.89	86.1252	1,108.89	84.1878	1,108.89	86.8067	1,108.89	84.526	1,108.89	86.4172	1,108.89	83.3686	1,108.89	85.2729	1,108.89	80.4662	1,108.89	83.6187	1,108.89	79.2576	1,108.89	81.919	1,108.89	80.6837	1,108.89	80.6666	1,108.89	80.3646	1,108.89	79.6358	1,108.89	77.3074	1,108.89	78.0757	1,108.89	75.6148	1,108.89	77.5418	1,108.89	76.0024	1,108.89	77.7804	1,108.89	73.0746	1,108.89	74.3945	1,108.89	71.3023	1,108.89	75.1322	1,108.89	74.3659	1,108.89	78.6325	1,108.89	73.2396	1,108.89	77.1365	1,108.89	71.9319	1,108.89	73.9549	1,108.89	73.0229
1,148.44	83.9718	1,148.44	83.4425	1,148.44	84.5377	1,148.44	82.9315	1,148.44	85.7589	1,148.44	83.3877	1,148.44	86.5045	1,148.44	83.65	1,148.44	86.0323	1,148.44	82.7697	1,148.44	85.1373	1,148.44	82.0945	1,148.44	84.4487	1,148.44	81.5845	1,148.44	82.561	1,148.44	79.5101	1,148.44	78.4882	1,148.44	78.8198	1,148.44	75.5127	1,148.44	78.9118	1,148.44	76.6288	1,148.44	77.1414	1,148.44	76.4796	1,148.44	75.3811	1,148.44	78.6229	1,148.44	76.9054	1,148.44	79.8975	1,148.44	76.5066	1,148.44	77.8402	1,148.44	74.2312	1,148.44	77.3127	1,148.44	73.5398	1,148.44	76.6933	1,148.44	73.1988	1,148.44	72.9423	1,148.44	71.8399
1,189.45	84.5383	1,189.45	83.9036	1,189.45	84.1414	1,189.45	83.2258	1,189.45	84.6845	1,189.45	83.422	1,189.45	86.3008	1,189.45	82.0843	1,189.45	86.84	1,189.45	79.7055	1,189.45	85.5583	1,189.45	80.0082	1,189.45	83.1746	1,189.45	80.8884	1,189.45	82.1247	1,189.45	79.8569	1,189.45	81.4485	1,189.45	78.6144	1,189.45	78.813	1,189.45	78.2004	1,189.45	76.0965	1,189.45	78.0641	1,189.45	74.3906	1,189.45	77.275	1,189.45	73.8413	1,189.45	75.3729	1,189.45	74.2121	1,189.45	70.1476	1,189.45	75.4539	1,189.45	70.7574	1,189.45	77.9165	1,189.45	73.2083	1,189.45	76.5782	1,189.45	72.095	1,189.45	69.9373	1,189.45	68.5828
1,230.47	85.1965	1,230.47	84.2928	1,230.47	84.7118	1,230.47	83.5094	1,230.47	84.6888	1,230.47	83.4605	1,230.47	85.902	1,230.47	82.2102	1,230.47	85.8605	1,230.47	80.409	1,230.47	84.3967	1,230.47	80.5978	1,230.47	83.4966	1,230.47	80.7541	1,230.47	82.7215	1,230.47	78.4813	1,230.47	79.6764	1,230.47	73.9057	1,230.47	76.1731	1,230.47	73.9732	1,230.47	76.7783	1,230.47	76.8772	1,230.47	75.7799	1,230.47	77.5726	1,230.47	74.4503	1,230.47	77.6799	1,230.47	76.0656	1,230.47	76.1194	1,230.47	76.8434	1,230.47	72.6895	1,230.47	77.1237	1,230.47	72.6074	1,230.47	75.3564	1,230.47	74.7737	1,230.47	72.8259	1,230.47	74.9199
1,274.41	84.638	1,274.41	84.2116	1,274.41	84.9929	1,274.41	84.0426	1,274.41	84.9014	1,274.41	83.2094	1,274.41	84.7137	1,274.41	81.6077	1,274.41	84.5997	1,274.41	80.7164	1,274.41	83.8208	1,274.41	80.3821	1,274.41	82.0196	1,274.41	79.0191	1,274.41	81.2191	1,274.41	78.3493	1,274.41	81.3047	1,274.41	78.522	1,274.41	78.7227	1,274.41	77.0837	1,274.41	74.4028	1,274.41	72.7365	1,274.41	74.6653	1,274.41	73.0491	1,274.41	76.0835	1,274.41	74.3431	1,274.41	75.7973	1,274.41	72.4075	1,274.41	73.77	1,274.41	66.9741	1,274.41	74.6378	1,274.41	71.3462	1,274.41	74.3922	1,274.41	73.9602	1,274.41	71.3334	1,274.41	72.5791
1,319.82	84.2426	1,319.82	83.5526	1,319.82	84.7732	1,319.82	83.2248	1,319.82	84.6847	1,319.82	82.0993	1,319.82	84.8294	1,319.82	80.9974	1,319.82	84.7972	1,319.82	80.9737	1,319.82	83.5754	1,319.82	80.2746	1,319.82	81.4894	1,319.82	78.4715	1,319.82	79.5994	1,319.82	75.3917	1,319.82	78.4514	1,319.82	73.0463	1,319.82	76.7704	1,319.82	75.0796	1,319.82	74.3965	1,319.82	75.2497	1,319.82	75.3969	1,319.82	73.5527	1,319.82	72.4038	1,319.82	75.0777	1,319.82	71.95	1,319.82	76.399	1,319.82	77.4775	1,319.82	73.9032	1,319.82	77.1759	1,319.82	69.968	1,319.82	74.1998	1,319.82	73.652	1,319.82	71.534	1,319.82	74.4114
1,366.7	84.2933	1,366.7	83.9929	1,366.7	84.5735	1,366.7	83.4974	1,366.7	84.4828	1,366.7	82.0303	1,366.7	84.0135	1,366.7	80.9578	1,366.7	83.747	1,366.7	81.7751	1,366.7	82.837	1,366.7	81.0195	1,366.7	80.4766	1,366.7	77.6392	1,366.7	79.5654	1,366.7	76.0484	1,366.7	80.1167	1,366.7	75.4334	1,366.7	78.2082	1,366.7	73.8122	1,366.7	74.2346	1,366.7	74.3141	1,366.7	69.4149	1,366.7	71.9775	1,366.7	73.0342	1,366.7	69.6254	1,366.7	72.0851	1,366.7	75.3731	1,366.7	72.0882	1,366.7	75.9501	1,366.7	74.8751	1,366.7	71.1766	1,366.7	72.5539	1,366.7	73.1583	1,366.7	70.6184	1,366.7	75.5978
1,413.57	83.0305	1,413.57	83.548	1,413.57	83.2043	1,413.57	83.9108	1,413.57	84.3917	1,413.57	83.2662	1,413.57	84.6774	1,413.57	82.4804	1,413.57	83.3822	1,413.57	81.4387	1,413.57	81.7355	1,413.57	79.6586	1,413.57	79.7097	1,413.57	79.1842	1,413.57	78.0156	1,413.57	80.3022	1,413.57	76.7831	1,413.57	78.9742	1,413.57	75.511	1,413.57	75.4111	1,413.57	75.6855	1,413.57	70.9423	1,413.57	72.6845	1,413.57	73.526	1,413.57	72.0943	1,413.57	71.6163	1,413.57	72.6383	1,413.57	67.8025	1,413.57	66.4527	1,413.57	73.0293	1,413.57	73.9873	1,413.57	73.1083	1,413.57	70.6838	1,413.57	72.211	1,413.57	69.6755	1,413.57	71.5707
1,463.38	81.8151	1,463.38	82.7811	1,463.38	81.4773	1,463.38	83.5035	1,463.38	82.8418	1,463.38	82.4448	1,463.38	84.1012	1,463.38	82.3232	1,463.38	83.5996	1,463.38	81.2869	1,463.38	81.7123	1,463.38	76.4495	1,463.38	78.3512	1,463.38	77.8638	1,463.38	75.9402	1,463.38	78.9233	1,463.38	76.9311	1,463.38	74.4302	1,463.38	76.3317	1,463.38	75.9289	1,463.38	74.3409	1,463.38	75.9296	1,463.38	72.5673	1,463.38	70.6703	1,463.38	69.8813	1,463.38	70.3191	1,463.38	69.2119	1,463.38	69.9108	1,463.38	68.009	1,463.38	71.7571	1,463.38	70.3082	1,463.38	70.6412	1,463.38	68.9873	1,463.38	69.0913	1,463.38	71.6487	1,463.38	71.6741
1,516.11	81.0701	1,516.11	81.9082	1,516.11	81.6726	1,516.11	82.377	1,516.11	82.4078	1,516.11	82.0468	1,516.11	83.049	1,516.11	81.4222	1,516.11	82.9833	1,516.11	78.2884	1,516.11	81.1439	1,516.11	77.7792	1,516.11	79.0102	1,516.11	77.0881	1,516.11	75.9825	1,516.11	73.3895	1,516.11	73.548	1,516.11	70.764	1,516.11	74.1679	1,516.11	68.0498	1,516.11	71.9912	1,516.11	72.2572	1,516.11	74.2818	1,516.11	75.1079	1,516.11	72.9448	1,516.11	72.708	1,516.11	73.3573	1,516.11	66.6624	1,516.11	73.7064	1,516.11	67.636	1,516.11	71.0779	1,516.11	65.3564	1,516.11	68.4025	1,516.11	70.2736	1,516.11	63.4126	1,516.11	70.87
1,568.85	80.9947	1,568.85	81.5592	1,568.85	80.6759	1,568.85	81.4006	1,568.85	80.9795	1,568.85	81.8593	1,568.85	81.6061	1,568.85	81.9579	1,568.85	81.7416	1,568.85	78.8583	1,568.85	80.7396	1,568.85	78.5367	1,568.85	78.1972	1,568.85	76.4712	1,568.85	76.5045	1,568.85	72.1832	1,568.85	74.655	1,568.85	72.2337	1,568.85	73.1804	1,568.85	68.589	1,568.85	73.0223	1,568.85	64.4401	1,568.85	68.2421	1,568.85	70.0625	1,568.85	72.0069	1,568.85	72.7328	1,568.85	74.0062	1,568.85	68.6076	1,568.85	65.5077	1,568.85	67.44	1,568.85	66.3271	1,568.85	69.8138	1,568.85	65.6975	1,568.85	68.2078	1,568.85	68.6101	1,568.85	70.6738
1,624.51	81.1368	1,624.51	81.2676	1,624.51	80.8603	1,624.51	81.1632	1,624.51	79.9455	1,624.51	81.1324	1,624.51	81.4202	1,624.51	79.8649	1,624.51	81.4955	1,624.51	77.6749	1,624.51	78.7165	1,624.51	78.501	1,624.51	77.0708	1,624.51	75.4521	1,624.51	74.0032	1,624.51	72.8807	1,624.51	71.83	1,624.51	73.7919	1,624.51	72.2174	1,624.51	72.1988	1,624.51	68.6013	1,624.51	71.737	1,624.51	70.5237	1,624.51	69.7418	1,624.51	68.3561	1,624.51	70.4732	1,624.51	67.9717	1,624.51	71.2135	1,624.51	66.5187	1,624.51	66.4548	1,624.51	71.0498	1,624.51	67.3467	1,624.51	70.4864	1,624.51	65.7302	1,624.51	70.3205	1,624.51	69.491
1,681.64	82.1994	1,681.64	83.0434	1,681.64	81.2622	1,681.64	81.3564	1,681.64	80.4323	1,681.64	80.7728	1,681.64	80.85	1,681.64	79.8941	1,681.64	81.2544	1,681.64	79.6703	1,681.64	79.568	1,681.64	77.9669	1,681.64	77.5017	1,681.64	74.1091	1,681.64	74.8666	1,681.64	73.9106	1,681.64	73.4084	1,681.64	71.6045	1,681.64	72.0956	1,681.64	69.987	1,681.64	73.5735	1,681.64	70.0776	1,681.64	73.1538	1,681.64	67.122	1,681.64	71.0471	1,681.64	64.7556	1,681.64	71.05	1,681.64	69.6654	1,681.64	69.9708	1,681.64	65.8264	1,681.64	70.617	1,681.64	66.5305	1,681.64	63.3263	1,681.64	66.861	1,681.64	67.7439	1,681.64	70.4963
1,741.7	83.5286	1,741.7	83.5456	1,741.7	81.5717	1,741.7	81.833	1,741.7	80.7578	1,741.7	80.1456	1,741.7	81.2558	1,741.7	77.937	1,741.7	81.6176	1,741.7	78.1724	1,741.7	81.255	1,741.7	75.5776	1,741.7	77.5602	1,741.7	74.9994	1,741.7	72.9563	1,741.7	75.641	1,741.7	73.2731	1,741.7	72.6874	1,741.7	73.459	1,741.7	73.3152	1,741.7	72.6756	1,741.7	72.1333	1,741.7	68.823	1,741.7	68.1456	1,741.7	70.9327	1,741.7	63.5584	1,741.7	72.0806	1,741.7	60.3312	1,741.7	72.3364	1,741.7	65.5201	1,741.7	61.6864	1,741.7	63.3523	1,741.7	63.2929	1,741.7	68.333	1,741.7	68.9836	1,741.7	69.4103
1,803.22	82.9691	1,803.22	83.2644	1,803.22	82.2831	1,803.22	82.1103	1,803.22	82.3235	1,803.22	81.3065	1,803.22	81.3821	1,803.22	78.5351	1,803.22	81.7769	1,803.22	76.257	1,803.22	80.5828	1,803.22	75.8989	1,803.22	78.5569	1,803.22	77.3734	1,803.22	74.5607	1,803.22	71.7854	1,803.22	69.6999	1,803.22	71.5007	1,803.22	64.9696	1,803.22	72.6583	1,803.22	65.6894	1,803.22	67.4901	1,803.22	70.7293	1,803.22	74.4977	1,803.22	72.7751	1,803.22	71.4033	1,803.22	72.7287	1,803.22	66.1723	1,803.22	70.5278	1,803.22	64.7691	1,803.22	71.4101	1,803.22	65.8353	1,803.22	68.6271	1,803.22	63.5829	1,803.22	70.0361	1,803.22	70.6759
1,866.21	82.4936	1,866.21	82.643	1,866.21	82.111	1,866.21	82.4747	1,866.21	81.7595	1,866.21	81.3991	1,866.21	80.7269	1,866.21	78.5928	1,866.21	80.8118	1,866.21	75.5363	1,866.21	79.9438	1,866.21	74.0042	1,866.21	77.7281	1,866.21	78.1554	1,866.21	77.2044	1,866.21	74.2904	1,866.21	75.5491	1,866.21	73.8929	1,866.21	70.9038	1,866.21	68.6647	1,866.21	74.5383	1,866.21	69.8362	1,866.21	71.4223	1,866.21	63.9067	1,866.21	72.8964	1,866.21	72.2725	1,866.21	72.9088	1,866.21	67.3286	1,866.21	67.0029	1,866.21	69.607	1,866.21	66.1429	1,866.21	69.0854	1,866.21	63.818	1,866.21	69.4475	1,866.21	64.9636	1,866.21	66.1071
1,932.13	82.8859	1,932.13	81.6247	1,932.13	81.1068	1,932.13	81.8492	1,932.13	82.6321	1,932.13	80.9446	1,932.13	82.5281	1,932.13	80.404	1,932.13	81.5658	1,932.13	76.8883	1,932.13	79.638	1,932.13	76.2197	1,932.13	79.3061	1,932.13	76.2739	1,932.13	76.5319	1,932.13	73.1726	1,932.13	73.5095	1,932.13	72.5932	1,932.13	73.2786	1,932.13	66.1378	1,932.13	72.2194	1,932.13	74.8108	1,932.13	68.7731	1,932.13	61.2934	1,932.13	71.4633	1,932.13	63.314	1,932.13	67.7653	1,932.13	71.0284	1,932.13	63.0183	1,932.13	66.606	1,932.13	59.8706	1,932.13	45.4478	1,932.13	58.4263	1,932.13	67.8145	1,932.13	69.6375	1,932.13	72.3494
1,999.51	82.7617	1,999.51	82.4005	1,999.51	80.1016	1,999.51	82.2624	1,999.51	79.1173	1,999.51	80.1606	1,999.51	80.8052	1,999.51	81.2738	1,999.51	80.4054	1,999.51	77.1448	1,999.51	80.8144	1,999.51	76.9267	1,999.51	76.0861	1,999.51	69.3734	1,999.51	75.4305	1,999.51	75.4544	1,999.51	71.6308	1,999.51	74.0879	1,999.51	72.7225	1,999.51	76.5413	1,999.51	73.2888	1,999.51	70.1408	1,999.51	71.7559	1,999.51	74.1018	1,999.51	65.3851	1,999.51	64.3023	1,999.51	69.8184	1,999.51	69.7287	1,999.51	69.0597	1,999.51	67.8138	1,999.51	67.3961	1,999.51	71.2946	1,999.51	66.7851	1,999.51	64.9083	1,999.51	71.2361	1,999.51	66.2587
2,069.82	83.3355	2,069.82	81.6036	2,069.82	82.5594	2,069.82	80.8406	2,069.82	78.3618	2,069.82	79.3947	2,069.82	79.6409	2,069.82	77.461	2,069.82	79.9918	2,069.82	77.0332	2,069.82	80.3991	2,069.82	75.683	2,069.82	78.0005	2,069.82	71.954	2,069.82	75.2852	2,069.82	73.4873	2,069.82	73.3763	2,069.82	73.2521	2,069.82	71.0537	2,069.82	72.4089	2,069.82	70.8015	2,069.82	64.3299	2,069.82	69.7361	2,069.82	67.0778	2,069.82	69.4266	2,069.82	64.7627	2,069.82	71.0475	2,069.82	64.4086	2,069.82	57.7206	2,069.82	62.1736	2,069.82	56.4388	2,069.82	63.575	2,069.82	56.653	2,069.82	69.7228	2,069.82	69.3547	2,069.82	65.3759
2,143.07	82.3563	2,143.07	81.845	2,143.07	82.5338	2,143.07	79.8081	2,143.07	79.8385	2,143.07	79.2738	2,143.07	80.2208	2,143.07	76.5461	2,143.07	78.8464	2,143.07	79.4587	2,143.07	79.2164	2,143.07	75.3946	2,143.07	79.9513	2,143.07	77.0616	2,143.07	77.1815	2,143.07	75.2061	2,143.07	73.4624	2,143.07	67.0426	2,143.07	71.8817	2,143.07	68.8764	2,143.07	67.3066	2,143.07	64.8774	2,143.07	67.2388	2,143.07	65.0558	2,143.07	69.1129	2,143.07	66.3388	2,143.07	71.4288	2,143.07	69.3014	2,143.07	55.4536	2,143.07	58.7763	2,143.07	47.8373	2,143.07	61.9696	2,143.07	61.2633	2,143.07	71.0784	2,143.07	68.6836	2,143.07	64.9211
2,219.24	81.9621	2,219.24	81.739	2,219.24	81.2901	2,219.24	81.468	2,219.24	82.3696	2,219.24	79.1682	2,219.24	80.2397	2,219.24	77.7747	2,219.24	76.1075	2,219.24	78.2288	2,219.24	78.107	2,219.24	76.8528	2,219.24	79.681	2,219.24	77.1663	2,219.24	77.3545	2,219.24	74.4164	2,219.24	73.1394	2,219.24	70.9541	2,219.24	73.0997	2,219.24	69.3686	2,219.24	71.5661	2,219.24	68.045	2,219.24	72.5861	2,219.24	65.6962	2,219.24	68.7296	2,219.24	67.6474	2,219.24	71.4176	2,219.24	71.588	2,219.24	68.2078	2,219.24	69.9829	2,219.24	55.4019	2,219.24	62.4353	2,219.24	64.2364	2,219.24	66.381	2,219.24	66.3434	2,219.24	68.2557
2,296.88	81.3609	2,296.88	80.1299	2,296.88	81.3988	2,296.88	80.7483	2,296.88	78.7677	2,296.88	79.4438	2,296.88	78.2055	2,296.88	78.5718	2,296.88	78.8962	2,296.88	77.9692	2,296.88	79.5246	2,296.88	79.2373	2,296.88	78.2409	2,296.88	74.9221	2,296.88	79.2908	2,296.88	67.63	2,296.88	72.3387	2,296.88	74.0321	2,296.88	70.6475	2,296.88	66.0359	2,296.88	68.2697	2,296.88	74.5477	2,296.88	71.2796	2,296.88	73.995	2,296.88	65.927	2,296.88	60.7723	2,296.88	66.6472	2,296.88	62.17	2,296.88	64.4056	2,296.88	66.2674	2,296.88	61.2759	2,296.88	72.1855	2,296.88	65.1034	2,296.88	65.7203	2,296.88	68.0422	2,296.88	65.8288
2,378.91	81.2268	2,378.91	81.6232	2,378.91	81.6137	2,378.91	81.1177	2,378.91	79.2995	2,378.91	78.7281	2,378.91	79.0572	2,378.91	79.5808	2,378.91	78.5323	2,378.91	78.112	2,378.91	79.6243	2,378.91	77.8819	2,378.91	77.2266	2,378.91	74.545	2,378.91	78.7068	2,378.91	75.521	2,378.91	78.3217	2,378.91	71.3895	2,378.91	71.6067	2,378.91	62.5767	2,378.91	65.2346	2,378.91	72.8359	2,378.91	66.9034	2,378.91	72.432	2,378.91	68.9323	2,378.91	64.6924	2,378.91	65.3601	2,378.91	71.8129	2,378.91	57.3989	2,378.91	66.2143	2,378.91	59.0126	2,378.91	67.4426	2,378.91	62.9383	2,378.91	70.043	2,378.91	73.2649	2,378.91	66.3854
2,462.4	82.4462	2,462.4	82.8754	2,462.4	82.603	2,462.4	79.9872	2,462.4	79.6454	2,462.4	80.4422	2,462.4	76.2192	2,462.4	78.9298	2,462.4	78.4317	2,462.4	78.0067	2,462.4	79.2399	2,462.4	75.751	2,462.4	77.8283	2,462.4	76.114	2,462.4	75.5228	2,462.4	71.417	2,462.4	74.5638	2,462.4	72.6591	2,462.4	70.1442	2,462.4	69.1194	2,462.4	67.0778	2,462.4	68.368	2,462.4	66.2614	2,462.4	65.166	2,462.4	67.9832	2,462.4	63.6176	2,462.4	68.1546	2,462.4	66.9702	2,462.4	66.1021	2,462.4	64.4763	2,462.4	57.5138	2,462.4	63.9648	2,462.4	63.2186	2,462.4	66.0228	2,462.4	68.3754	2,462.4	66.5742
2,548.83	81.9758	2,548.83	82.1333	2,548.83	82.481	2,548.83	81.4593	2,548.83	80.9462	2,548.83	79.9737	2,548.83	76.8919	2,548.83	79.5969	2,548.83	77.1141	2,548.83	77.8703	2,548.83	79.6631	2,548.83	76.4818	2,548.83	77.9268	2,548.83	73.2148	2,548.83	76.214	2,548.83	72.4137	2,548.83	75.2085	2,548.83	70.2515	2,548.83	68.8843	2,548.83	67.212	2,548.83	68.7005	2,548.83	67.7988	2,548.83	50.6255	2,548.83	63.7634	2,548.83	70.0677	2,548.83	65.3507	2,548.83	66.9589	2,548.83	63.6185	2,548.83	65.4771	2,548.83	64.9176	2,548.83	58.9077	2,548.83	64.0251	2,548.83	64.0015	2,548.83	66.0509	2,548.83	70.0917	2,548.83	65.917
2,639.65	81.1636	2,639.65	80.9396	2,639.65	81.2013	2,639.65	81.4053	2,639.65	81.4803	2,639.65	80.2273	2,639.65	79.2876	2,639.65	79.8903	2,639.65	76.2057	2,639.65	77.5053	2,639.65	79.1829	2,639.65	76.4322	2,639.65	78.1023	2,639.65	72.0726	2,639.65	75.5802	2,639.65	72.889	2,639.65	72.5435	2,639.65	69.5455	2,639.65	68.1655	2,639.65	69.4675	2,639.65	66.7339	2,639.65	68.1644	2,639.65	68.0424	2,639.65	66.7503	2,639.65	68.6167	2,639.65	65.0544	2,639.65	66.364	2,639.65	62.4676	2,639.65	64.8518	2,639.65	63.642	2,639.65	49.3169	2,639.65	62.9416	2,639.65	62.8825	2,639.65	62.6976	2,639.65	68.1154	2,639.65	63.8392
2,731.93	80.5717	2,731.93	79.9088	2,731.93	80.1412	2,731.93	79.7082	2,731.93	80.5515	2,731.93	80.9988	2,731.93	79.4793	2,731.93	79.0062	2,731.93	77.4107	2,731.93	77.8737	2,731.93	78.3299	2,731.93	74.7774	2,731.93	77.664	2,731.93	74.9421	2,731.93	75.7177	2,731.93	72.4278	2,731.93	74.7866	2,731.93	71.387	2,731.93	65.6685	2,731.93	69.3086	2,731.93	54.3385	2,731.93	66.6158	2,731.93	65.9366	2,731.93	64.5119	2,731.93	69.7062	2,731.93	64.1186	2,731.93	65.631	2,731.93	62.2243	2,731.93	64.4198	2,731.93	61.0727	2,731.93	51.2284	2,731.93	60.6842	2,731.93	62.7293	2,731.93	60.8704	2,731.93	64.8518	2,731.93	65.0905
2,828.61	80.7589	2,828.61	80.3985	2,828.61	80.3148	2,828.61	79.7262	2,828.61	79.2897	2,828.61	80.7015	2,828.61	78.5037	2,828.61	78.9961	2,828.61	77.7816	2,828.61	76.6159	2,828.61	77.6077	2,828.61	75.5314	2,828.61	78.4412	2,828.61	73.8812	2,828.61	76.9186	2,828.61	72.1916	2,828.61	74.334	2,828.61	69.5254	2,828.61	57.5225	2,828.61	67.9698	2,828.61	63.1724	2,828.61	64.3907	2,828.61	63.1298	2,828.61	66.0862	2,828.61	69.0551	2,828.61	63.1644	2,828.61	63.8761	2,828.61	65.2946	2,828.61	64.1318	2,828.61	61.4352	2,828.61	30.9393	2,828.61	61.8589	2,828.61	63.1186	2,828.61	61.9521	2,828.61	65.0038	2,828.61	66.4452
2,928.22	81.4854	2,928.22	81.1263	2,928.22	80.827	2,928.22	81.7391	2,928.22	79.6882	2,928.22	80.6774	2,928.22	77.4554	2,928.22	78.5455	2,928.22	77.7226	2,928.22	76.8981	2,928.22	77.8349	2,928.22	76.7804	2,928.22	78.5518	2,928.22	73.7122	2,928.22	77.1039	2,928.22	71.4111	2,928.22	73.1187	2,928.22	70.0894	2,928.22	65.0484	2,928.22	69.2537	2,928.22	67.5145	2,928.22	67.8687	2,928.22	67.9769	2,928.22	67.2914	2,928.22	60.2798	2,928.22	64.4001	2,928.22	68.7274	2,928.22	65.6404	2,928.22	61.7388	2,928.22	60.6556	2,928.22	50.5561	2,928.22	61.4408	2,928.22	62.0105	2,928.22	61.7296	2,928.22	64.802	2,928.22	65.2638
3,030.76	81.4406	3,030.76	81.1224	3,030.76	80.5458	3,030.76	82.6135	3,030.76	80.0561	3,030.76	80.447	3,030.76	78.1867	3,030.76	78.8596	3,030.76	77.3668	3,030.76	78.0584	3,030.76	78.0226	3,030.76	75.1728	3,030.76	78.4681	3,030.76	72.9841	3,030.76	77.6299	3,030.76	72.4623	3,030.76	71.7076	3,030.76	70.8087	3,030.76	71.0441	3,030.76	68.5912	3,030.76	68.6774	3,030.76	66.6042	3,030.76	65.7986	3,030.76	65.3117	3,030.76	64.0012	3,030.76	64.5936	3,030.76	67.0921	3,030.76	63.6753	3,030.76	63.9138	3,030.76	64.2677	3,030.76	53.9872	3,030.76	61.963	3,030.76	61.5435	3,030.76	60.9955	3,030.76	64.7652	3,030.76	65.8797
3,137.7	81.2041	3,137.7	80.6371	3,137.7	80.5127	3,137.7	82.1933	3,137.7	80.2182	3,137.7	80.5564	3,137.7	78.7631	3,137.7	78.9882	3,137.7	75.3673	3,137.7	78.0991	3,137.7	77.1212	3,137.7	75.5345	3,137.7	78.0488	3,137.7	74.8462	3,137.7	78.054	3,137.7	70.9154	3,137.7	71.4843	3,137.7	67.9852	3,137.7	72.208	3,137.7	67.7824	3,137.7	69.9198	3,137.7	65.2422	3,137.7	64.0973	3,137.7	66.3159	3,137.7	61.3897	3,137.7	62.8374	3,137.7	67.1739	3,137.7	64.4693	3,137.7	62.5264	3,137.7	64.7917	3,137.7	52.6482	3,137.7	60.2943	3,137.7	61.1722	3,137.7	60.3843	3,137.7	64.3356	3,137.7	64.2973
3,249.02	80.8168	3,249.02	80.9114	3,249.02	80.7537	3,249.02	81.6002	3,249.02	80.2698	3,249.02	80.6909	3,249.02	79.2706	3,249.02	79.3114	3,249.02	74.7243	3,249.02	77.9801	3,249.02	77.4828	3,249.02	75.0331	3,249.02	79.402	3,249.02	73.2855	3,249.02	79.3309	3,249.02	72.5312	3,249.02	73.4478	3,249.02	72.5261	3,249.02	73.3783	3,249.02	68.2344	3,249.02	70.6066	3,249.02	66.0693	3,249.02	65.9869	3,249.02	65.3789	3,249.02	61.9589	3,249.02	63.9842	3,249.02	66.4255	3,249.02	63.4448	3,249.02	63.1901	3,249.02	65.0526	3,249.02	55.7228	3,249.02	59.5025	3,249.02	60.5879	3,249.02	60.7671	3,249.02	65.4398	3,249.02	62.3139
3,363.28	80.2468	3,363.28	81.1346	3,363.28	81.291	3,363.28	80.6338	3,363.28	79.4122	3,363.28	80.1282	3,363.28	79.616	3,363.28	79.5975	3,363.28	76.651	3,363.28	77.6583	3,363.28	77.4926	3,363.28	76.8916	3,363.28	80.6802	3,363.28	74.7654	3,363.28	79.728	3,363.28	74.296	3,363.28	75.053	3,363.28	69.2175	3,363.28	75.2126	3,363.28	67.0533	3,363.28	72.0463	3,363.28	66.3175	3,363.28	62.3455	3,363.28	64.6943	3,363.28	62.8463	3,363.28	62.9474	3,363.28	63.4825	3,363.28	64.5259	3,363.28	62.448	3,363.28	63.5071	3,363.28	56.3346	3,363.28	57.2484	3,363.28	62.9259	3,363.28	60.4657	3,363.28	62.1824	3,363.28	65.9254
3,481.93	80.3202	3,481.93	82.2582	3,481.93	81.4476	3,481.93	82.091	3,481.93	80.7028	3,481.93	80.6975	3,481.93	79.5482	3,481.93	79.2576	3,481.93	77.1396	3,481.93	78.8889	3,481.93	77.6553	3,481.93	76.2516	3,481.93	81.1054	3,481.93	75.4235	3,481.93	77.6768	3,481.93	70.1044	3,481.93	76.527	3,481.93	70.1844	3,481.93	74.192	3,481.93	68.9659	3,481.93	66.367	3,481.93	66.6711	3,481.93	66.465	3,481.93	66.0964	3,481.93	67.1632	3,481.93	62.6826	3,481.93	63.7167	3,481.93	64.2946	3,481.93	58.6436	3,481.93	62.8887	3,481.93	60.8371	3,481.93	61.8094	3,481.93	60.7079	3,481.93	60.6358	3,481.93	61.8466	3,481.93	65.4348
3,604.98	81.0114	3,604.98	82.3172	3,604.98	80.8485	3,604.98	81.883	3,604.98	81.2803	3,604.98	81.4355	3,604.98	80.6068	3,604.98	79.4527	3,604.98	79.1433	3,604.98	78.5526	3,604.98	78.9572	3,604.98	77.1299	3,604.98	81.5525	3,604.98	73.3134	3,604.98	76.2428	3,604.98	71.993	3,604.98	75.8735	3,604.98	70.2711	3,604.98	70.9661	3,604.98	66.2753	3,604.98	66.8897	3,604.98	65.9606	3,604.98	64.1158	3,604.98	63.6287	3,604.98	68.3147	3,604.98	62.8808	3,604.98	63.8975	3,604.98	61.6234	3,604.98	56.5779	3,604.98	61.2019	3,604.98	59.8535	3,604.98	60.3132	3,604.98	59.1992	3,604.98	58.7923	3,604.98	62.7488	3,604.98	65.2057
3,732.42	81.3976	3,732.42	82.7217	3,732.42	81.9604	3,732.42	81.1576	3,732.42	81.6575	3,732.42	81.026	3,732.42	81.1588	3,732.42	79.7764	3,732.42	80.4942	3,732.42	78.2693	3,732.42	78.8361	3,732.42	74.7885	3,732.42	80.4416	3,732.42	73.5873	3,732.42	75.9341	3,732.42	71.5933	3,732.42	74.037	3,732.42	68.2411	3,732.42	64.3382	3,732.42	67.0752	3,732.42	61.1374	3,732.42	64.9818	3,732.42	63.1318	3,732.42	64.2416	3,732.42	67.3213	3,732.42	62.7517	3,732.42	67.157	3,732.42	62.1534	3,732.42	52.1926	3,732.42	61.6601	3,732.42	62.8382	3,732.42	58.4987	3,732.42	58.4234	3,732.42	56.7502	3,732.42	63.6589	3,732.42	64.4911
3,864.26	81.3984	3,864.26	81.68	3,864.26	81.0815	3,864.26	81.7389	3,864.26	83.0409	3,864.26	80.7221	3,864.26	81.797	3,864.26	80.1687	3,864.26	81.1523	3,864.26	78.1484	3,864.26	79.4888	3,864.26	75.2068	3,864.26	79.2675	3,864.26	72.7456	3,864.26	76.3599	3,864.26	69.8849	3,864.26	74.1271	3,864.26	70.1051	3,864.26	68.6906	3,864.26	65.2765	3,864.26	62.6397	3,864.26	65.635	3,864.26	43.4872	3,864.26	62.7898	3,864.26	67.2799	3,864.26	65.7998	3,864.26	66.6598	3,864.26	60.9291	3,864.26	58.1129	3,864.26	62.7011	3,864.26	63.45	3,864.26	57.5076	3,864.26	59.6306	3,864.26	56.2728	3,864.26	63.0641	3,864.26	61.318
4,000.49	82.4807	4,000.49	81.4013	4,000.49	79.9205	4,000.49	82.1448	4,000.49	81.7499	4,000.49	81.8814	4,000.49	82.0092	4,000.49	79.2904	4,000.49	80.7175	4,000.49	77.8302	4,000.49	80.505	4,000.49	74.3495	4,000.49	79.0325	4,000.49	74.2276	4,000.49	78.0713	4,000.49	72.4285	4,000.49	71.8337	4,000.49	70.0846	4,000.49	65.1957	4,000.49	68.4008	4,000.49	63.7611	4,000.49	64.9138	4,000.49	60.2812	4,000.49	64.0233	4,000.49	66.7062	4,000.49	64.9799	4,000.49	65.7664	4,000.49	62.3454	4,000.49	58.9664	4,000.49	62.3958	4,000.49	62.3501	4,000.49	57.1476	4,000.49	56.6197	4,000.49	58.8417	4,000.49	62.2555	4,000.49	62.8557
4,141.11	82.6054	4,141.11	82.9947	4,141.11	81.3743	4,141.11	82.0379	4,141.11	80.9726	4,141.11	80.7293	4,141.11	81.9047	4,141.11	79.4447	4,141.11	80.5292	4,141.11	77.5786	4,141.11	79.039	4,141.11	75.2363	4,141.11	79.3594	4,141.11	75.6762	4,141.11	76.4286	4,141.11	70.2403	4,141.11	70.9106	4,141.11	72.3492	4,141.11	59.2661	4,141.11	68.5713	4,141.11	69.2168	4,141.11	66.8636	4,141.11	66.8568	4,141.11	63.2106	4,141.11	69.1479	4,141.11	65.6586	4,141.11	66.466	4,141.11	64.1946	4,141.11	59.6688	4,141.11	61.1689	4,141.11	61.3262	4,141.11	59.1756	4,141.11	52.7206	4,141.11	55.7134	4,141.11	64.1254	4,141.11	64.5341
4,287.6	82.7707	4,287.6	82.0002	4,287.6	81.675	4,287.6	82.0232	4,287.6	81.8537	4,287.6	81.7285	4,287.6	81.2211	4,287.6	79.753	4,287.6	79.9702	4,287.6	77.7746	4,287.6	77.7136	4,287.6	76.853	4,287.6	78.9779	4,287.6	73.7305	4,287.6	76.7904	4,287.6	74.5885	4,287.6	70.9194	4,287.6	67.1883	4,287.6	69.8579	4,287.6	67.2852	4,287.6	70.199	4,287.6	65.8787	4,287.6	65.4634	4,287.6	64.0222	4,287.6	69.217	4,287.6	65.6614	4,287.6	65.5504	4,287.6	62.8728	4,287.6	59.2837	4,287.6	60.8955	4,287.6	58.267	4,287.6	58.8137	4,287.6	60.385	4,287.6	57.2491	4,287.6	62.5767	4,287.6	62.9957
4,438.48	83.8999	4,438.48	81.5144	4,438.48	82.6325	4,438.48	82.3012	4,438.48	82.4699	4,438.48	81.3929	4,438.48	81.5655	4,438.48	78.5778	4,438.48	78.3639	4,438.48	78.2744	4,438.48	76.0956	4,438.48	75.9104	4,438.48	74.9752	4,438.48	74.9505	4,438.48	75.2783	4,438.48	67.6784	4,438.48	66.9615	4,438.48	70.4807	4,438.48	68.8157	4,438.48	66.4732	4,438.48	69.6015	4,438.48	62.4576	4,438.48	53.2331	4,438.48	62.2927	4,438.48	66.3153	4,438.48	61.3005	4,438.48	64.4439	4,438.48	60.0592	4,438.48	57.9507	4,438.48	63.5413	4,438.48	62.2521	4,438.48	60.169	4,438.48	61.1534	4,438.48	55.7057	4,438.48	62.0595	4,438.48	60.8283
4,595.21	83.0337	4,595.21	82.9012	4,595.21	82.6598	4,595.21	82.2044	4,595.21	82.0175	4,595.21	80.9232	4,595.21	81.8765	4,595.21	78.9244	4,595.21	77.514	4,595.21	79.2583	4,595.21	73.1248	4,595.21	73.6448	4,595.21	73.515	4,595.21	72.045	4,595.21	73.2425	4,595.21	72.5762	4,595.21	74.3391	4,595.21	68.9891	4,595.21	71.8917	4,595.21	67.2041	4,595.21	60.7329	4,595.21	65.2561	4,595.21	57.43	4,595.21	64.1568	4,595.21	60.6736	4,595.21	62.1379	4,595.21	64.2404	4,595.21	61.4937	4,595.21	48.8864	4,595.21	61.1074	4,595.21	63.9698	4,595.21	58.1736	4,595.21	58.9875	4,595.21	55.1123	4,595.21	61.1033	4,595.21	61.2478
4,756.35	83.4884	4,756.35	82.1035	4,756.35	83.5333	4,756.35	82.7758	4,756.35	81.7956	4,756.35	82.2044	4,756.35	81.8558	4,756.35	79.1144	4,756.35	78.3512	4,756.35	77.6366	4,756.35	70.2965	4,756.35	75.0693	4,756.35	71.0018	4,756.35	73.5896	4,756.35	76.2302	4,756.35	70.6414	4,756.35	77.4513	4,756.35	69.8554	4,756.35	71.6838	4,756.35	68.1972	4,756.35	58.4156	4,756.35	65.2482	4,756.35	60.2654	4,756.35	66.3608	4,756.35	64.216	4,756.35	63.7667	4,756.35	64.4373	4,756.35	61.385	4,756.35	53.7976	4,756.35	62.9689	4,756.35	64.7525	4,756.35	60.4296	4,756.35	52.9931	4,756.35	47.0706	4,756.35	58.7497	4,756.35	60.4214
4,924.8	83.8458	4,924.8	83.2919	4,924.8	84.637	4,924.8	83.2701	4,924.8	81.3226	4,924.8	80.4581	4,924.8	81.764	4,924.8	80.5091	4,924.8	78.8839	4,924.8	77.387	4,924.8	69.8223	4,924.8	76.0619	4,924.8	74.2762	4,924.8	74.8577	4,924.8	79.0094	4,924.8	73.3839	4,924.8	77.6564	4,924.8	68.0942	4,924.8	71.4447	4,924.8	68.0561	4,924.8	67.9291	4,924.8	64.4338	4,924.8	64.7465	4,924.8	63.571	4,924.8	64.2879	4,924.8	63.9707	4,924.8	61.4187	4,924.8	63.1867	4,924.8	53.2085	4,924.8	63.7846	4,924.8	62.7526	4,924.8	62.4008	4,924.8	50.681	4,924.8	56.9133	4,924.8	62.39	4,924.8	59.9483
5,097.66	83.1807	5,097.66	82.9507	5,097.66	84.4344	5,097.66	83.2373	5,097.66	83.178	5,097.66	82.2033	5,097.66	82.9871	5,097.66	80.3944	5,097.66	79.6893	5,097.66	78.4206	5,097.66	70.1864	5,097.66	77.6937	5,097.66	77.1063	5,097.66	74.8096	5,097.66	80.6689	5,097.66	72.8682	5,097.66	77.7092	5,097.66	71.6486	5,097.66	71.0629	5,097.66	68.4442	5,097.66	65.5028	5,097.66	65.3346	5,097.66	65.6596	5,097.66	66.031	5,097.66	61.2022	5,097.66	65.1872	5,097.66	57.8742	5,097.66	63.4157	5,097.66	56.8042	5,097.66	61.8066	5,097.66	56.5338	5,097.66	60.882	5,097.66	57.3491	5,097.66	50.5389	5,097.66	57.1407	5,097.66	59.0795
5,277.83	83.0035	5,277.83	83.9976	5,277.83	84.0704	5,277.83	82.8229	5,277.83	83.6068	5,277.83	82.2962	5,277.83	83.289	5,277.83	79.4452	5,277.83	79.603	5,277.83	79.7585	5,277.83	72.3914	5,277.83	76.2462	5,277.83	77.7638	5,277.83	75.6484	5,277.83	81.3125	5,277.83	71.735	5,277.83	76.6242	5,277.83	68.7783	5,277.83	72.0765	5,277.83	67.1013	5,277.83	57.7777	5,277.83	65.6531	5,277.83	60.7919	5,277.83	65.4005	5,277.83	41.3198	5,277.83	63.4369	5,277.83	59.3112	5,277.83	62.6161	5,277.83	47.1253	5,277.83	63.7707	5,277.83	60.0665	5,277.83	62.661	5,277.83	54.6353	5,277.83	45.5795	5,277.83	57.0215	5,277.83	60.7957
5,463.87	82.8905	5,463.87	84.181	5,463.87	84.4868	5,463.87	82.5921	5,463.87	83.1572	5,463.87	82.4251	5,463.87	82.7835	5,463.87	80.2464	5,463.87	80.4384	5,463.87	78.9248	5,463.87	74.6949	5,463.87	76.7712	5,463.87	78.5674	5,463.87	73.2682	5,463.87	80.315	5,463.87	72.2582	5,463.87	75.9438	5,463.87	70.2084	5,463.87	74.173	5,463.87	66.7469	5,463.87	65.267	5,463.87	66.3831	5,463.87	52.9775	5,463.87	61.993	5,463.87	54.6906	5,463.87	65.0854	5,463.87	52.9038	5,463.87	63.4567	5,463.87	61.0542	5,463.87	63.5703	5,463.87	61.3221	5,463.87	59.1619	5,463.87	43.5139	5,463.87	51.1118	5,463.87	61.1826	5,463.87	59.7341
5,657.23	83.0859	5,657.23	83.0816	5,657.23	84.3865	5,657.23	81.907	5,657.23	82.6914	5,657.23	81.8379	5,657.23	80.2231	5,657.23	80.7205	5,657.23	81.2256	5,657.23	78.6967	5,657.23	76.4623	5,657.23	76.6048	5,657.23	76.9573	5,657.23	74.8986	5,657.23	79.8174	5,657.23	71.9922	5,657.23	75.7396	5,657.23	69.2436	5,657.23	71.8041	5,657.23	67.9639	5,657.23	68.887	5,657.23	64.2775	5,657.23	35.3952	5,657.23	66.1243	5,657.23	53.9694	5,657.23	63.9854	5,657.23	60.6814	5,657.23	61.9416	5,657.23	63.6107	5,657.23	65.0136	5,657.23	59.7806	5,657.23	63.4564	5,657.23	52.0061	5,657.23	49.2916	5,657.23	54.3358	5,657.23	55.9904
5,856.45	82.5643	5,856.45	82.3939	5,856.45	82.2	5,856.45	83.2052	5,856.45	82.2344	5,856.45	81.6043	5,856.45	79.2813	5,856.45	81.3642	5,856.45	81.195	5,856.45	79.464	5,856.45	77.772	5,856.45	77.3219	5,856.45	75.9007	5,856.45	75.4204	5,856.45	78.4466	5,856.45	72.9603	5,856.45	76.3637	5,856.45	70.0552	5,856.45	71.7195	5,856.45	67.4803	5,856.45	66.0773	5,856.45	67.3175	5,856.45	59.0412	5,856.45	65.1031	5,856.45	54.0607	5,856.45	62.9313	5,856.45	61.4783	5,856.45	65.4756	5,856.45	61.6851	5,856.45	65.8405	5,856.45	59.9981	5,856.45	63.6665	5,856.45	41.3983	5,856.45	54.1345	5,856.45	57.0932	5,856.45	52.6069
6,062.99	83.2954	6,062.99	81.6216	6,062.99	82.547	6,062.99	82.8647	6,062.99	83.2985	6,062.99	82.2554	6,062.99	80.2217	6,062.99	80.6461	6,062.99	81.5911	6,062.99	79.9422	6,062.99	79.7649	6,062.99	78.05	6,062.99	75.1352	6,062.99	76.2232	6,062.99	76.9414	6,062.99	73.5488	6,062.99	75.6562	6,062.99	70.5405	6,062.99	72.8805	6,062.99	67.2195	6,062.99	67.9714	6,062.99	66.5647	6,062.99	62.283	6,062.99	66.0813	6,062.99	60.6199	6,062.99	63.7187	6,062.99	57.3615	6,062.99	65.9918	6,062.99	49.2517	6,062.99	66.4492	6,062.99	55.798	6,062.99	62.9923	6,062.99	48.5799	6,062.99	51.0561	6,062.99	60.3382	6,062.99	53.8355
6,276.86	81.5829	6,276.86	80.2044	6,276.86	80.8561	6,276.86	81.9463	6,276.86	82.9172	6,276.86	81.8936	6,276.86	82.134	6,276.86	80.9559	6,276.86	82.3755	6,276.86	80.577	6,276.86	81.0569	6,276.86	78.8416	6,276.86	73.075	6,276.86	75.5389	6,276.86	74.9311	6,276.86	72.675	6,276.86	76.6087	6,276.86	68.762	6,276.86	70.4258	6,276.86	68.2903	6,276.86	66.4363	6,276.86	63.1505	6,276.86	65.7569	6,276.86	66.2957	6,276.86	61.6416	6,276.86	63.4125	6,276.86	59.2496	6,276.86	65.8151	6,276.86	56.689	6,276.86	63.63	6,276.86	59.9136	6,276.86	63.7774	6,276.86	57.3598	6,276.86	59.9842	6,276.86	59.7785	6,276.86	50.1808
6,498.05	80.0124	6,498.05	79.9354	6,498.05	79.0959	6,498.05	80.4665	6,498.05	79.519	6,498.05	82.0986	6,498.05	82.0704	6,498.05	81.9656	6,498.05	82.4213	6,498.05	81.0796	6,498.05	82.2459	6,498.05	78.8861	6,498.05	72.421	6,498.05	75.7458	6,498.05	76.9924	6,498.05	74.0251	6,498.05	74.1903	6,498.05	70.7053	6,498.05	72.7484	6,498.05	68.248	6,498.05	69.1553	6,498.05	66.8899	6,498.05	60.5953	6,498.05	65.9268	6,498.05	60.5075	6,498.05	65.0297	6,498.05	60.6951	6,498.05	66.3011	6,498.05	57.1226	6,498.05	64.64	6,498.05	54.9341	6,498.05	66.5073	6,498.05	57.9955	6,498.05	60.225	6,498.05	58.1385	6,498.05	55.1583
6,726.56	77.2471	6,726.56	77.5595	6,726.56	79.8308	6,726.56	78.7238	6,726.56	78.8783	6,726.56	82.4432	6,726.56	79.6896	6,726.56	82.5585	6,726.56	84.2294	6,726.56	81.5421	6,726.56	82.6611	6,726.56	80.0802	6,726.56	72.8171	6,726.56	76.6916	6,726.56	75.4007	6,726.56	73.8136	6,726.56	69.7534	6,726.56	71.9244	6,726.56	62.2145	6,726.56	68.7037	6,726.56	64.1349	6,726.56	67.0631	6,726.56	60.4478	6,726.56	64.5047	6,726.56	62.9156	6,726.56	66.6617	6,726.56	63.5405	6,726.56	65.8211	6,726.56	63.268	6,726.56	65.3321	6,726.56	56.818	6,726.56	67.6311	6,726.56	57.6347	6,726.56	59.8287	6,726.56	52.9186	6,726.56	56.056
6,963.87	77.6014	6,963.87	78.2487	6,963.87	77.9793	6,963.87	79.7641	6,963.87	80.4103	6,963.87	82.6399	6,963.87	78.1034	6,963.87	83.5673	6,963.87	85.1276	6,963.87	81.8337	6,963.87	82.0512	6,963.87	80.7473	6,963.87	72.7325	6,963.87	76.8663	6,963.87	72.3482	6,963.87	74.1306	6,963.87	73.1134	6,963.87	71.6761	6,963.87	70.4851	6,963.87	68.105	6,963.87	62.2318	6,963.87	64.5449	6,963.87	60.7555	6,963.87	64.0937	6,963.87	62.4729	6,963.87	64.663	6,963.87	64.9552	6,963.87	65.9327	6,963.87	59.9833	6,963.87	64.0292	6,963.87	58.0857	6,963.87	66.5557	6,963.87	53.2063	6,963.87	59.5191	6,963.87	50.6684	6,963.87	50.5874
7,209.96	81.3298	7,209.96	80.7439	7,209.96	78.891	7,209.96	81.8261	7,209.96	78.6738	7,209.96	82.6486	7,209.96	82.2776	7,209.96	82.8789	7,209.96	84.3304	7,209.96	81.6335	7,209.96	81.4662	7,209.96	79.8548	7,209.96	69.0121	7,209.96	76.2378	7,209.96	71.4572	7,209.96	72.4392	7,209.96	73.3916	7,209.96	69.7713	7,209.96	70.2149	7,209.96	65.5058	7,209.96	58.8977	7,209.96	66.5307	7,209.96	55.2915	7,209.96	62.6034	7,209.96	56.7192	7,209.96	62.1048	7,209.96	53.3314	7,209.96	64.6864	7,209.96	61.0561	7,209.96	64.2892	7,209.96	58.4969	7,209.96	65.4626	7,209.96	59.4201	7,209.96	61.5739	7,209.96	53.3076	7,209.96	54.7024
7,464.84	81.833	7,464.84	82.5452	7,464.84	81.2633	7,464.84	82.141	7,464.84	80.4336	7,464.84	82.4452	7,464.84	82.5685	7,464.84	82.0451	7,464.84	81.1691	7,464.84	80.4946	7,464.84	79.6377	7,464.84	78.7262	7,464.84	68.5223	7,464.84	75.0455	7,464.84	73.5729	7,464.84	71.8187	7,464.84	73.715	7,464.84	68.6123	7,464.84	66.594	7,464.84	65.5021	7,464.84	53.895	7,464.84	62.8518	7,464.84	47.1646	7,464.84	64.4174	7,464.84	46.4335	7,464.84	62.4433	7,464.84	33.7125	7,464.84	63.1391	7,464.84	56.3711	7,464.84	62.4327	7,464.84	53.7927	7,464.84	64.0426	7,464.84	56.4006	7,464.84	60.9198	7,464.84	42.9982	7,464.84	56.7153
7,727.05	82.6297	7,727.05	83.1703	7,727.05	81.4382	7,727.05	82.6174	7,727.05	82.0442	7,727.05	82.827	7,727.05	82.2758	7,727.05	81.2231	7,727.05	75.917	7,727.05	79.8507	7,727.05	78.7211	7,727.05	77.1417	7,727.05	69.4533	7,727.05	74.113	7,727.05	75.3353	7,727.05	69.6455	7,727.05	74.5985	7,727.05	66.7489	7,727.05	69.7294	7,727.05	63.797	7,727.05	63.889	7,727.05	64.1755	7,727.05	59.1863	7,727.05	61.296	7,727.05	53.7098	7,727.05	61.6886	7,727.05	51.5904	7,727.05	60.3768	7,727.05	55.7031	7,727.05	60.8999	7,727.05	53.8251	7,727.05	61.4363	7,727.05	52.8721	7,727.05	58.0782	7,727.05	51.8925	7,727.05	54.7799
7,999.51	82.632	7,999.51	83.0446	7,999.51	83.4719	7,999.51	82.714	7,999.51	82.1092	7,999.51	82.4151	7,999.51	81.2864	7,999.51	80.9637	7,999.51	76.7357	7,999.51	78.9159	7,999.51	78.8961	7,999.51	76.9389	7,999.51	76.4263	7,999.51	72.3498	7,999.51	77.3198	7,999.51	69.8153	7,999.51	74.7494	7,999.51	64.8691	7,999.51	68.3385	7,999.51	63.3492	7,999.51	62.4074	7,999.51	57.7838	7,999.51	54.1806	7,999.51	60.4451	7,999.51	47.0652	7,999.51	62.1825	7,999.51	52.6146	7,999.51	54.6929	7,999.51	57.5018	7,999.51	60.4175	7,999.51	47.8637	7,999.51	59.9248	7,999.51	44.0029	7,999.51	55.8438	7,999.51	48.4327	7,999.51	52.9107
8,282.23	82.2558	8,282.23	82.8229	8,282.23	82.5473	8,282.23	82.3463	8,282.23	82.9059	8,282.23	81.7519	8,282.23	82.458	8,282.23	80.61	8,282.23	80.8427	8,282.23	78.7624	8,282.23	77.4275	8,282.23	76.1584	8,282.23	78.0329	8,282.23	71.1849	8,282.23	74.2348	8,282.23	67.4699	8,282.23	70.0903	8,282.23	64.5776	8,282.23	54.0667	8,282.23	59.4309	8,282.23	59.3432	8,282.23	59.6766	8,282.23	55.5179	8,282.23	59.9324	8,282.23	52.4474	8,282.23	55.3063	8,282.23	56.8819	8,282.23	54.8941	8,282.23	53.6421	8,282.23	57.5439	8,282.23	48.6894	8,282.23	61.7496	8,282.23	49.829	8,282.23	58.411	8,282.23	48.5452	8,282.23	53.0932
8,573.73	82.0259	8,573.73	82.419	8,573.73	82.7219	8,573.73	82.0646	8,573.73	82.477	8,573.73	81.8343	8,573.73	83.4455	8,573.73	81.4486	8,573.73	82.0079	8,573.73	78.4485	8,573.73	77.5761	8,573.73	75.8011	8,573.73	77.6081	8,573.73	70.9962	8,573.73	67.6255	8,573.73	66.9648	8,573.73	65.6603	8,573.73	62.99	8,573.73	63.1367	8,573.73	61.1311	8,573.73	66.5977	8,573.73	58.459	8,573.73	60.3001	8,573.73	58.7026	8,573.73	45.6889	8,573.73	56.7689	8,573.73	50.2702	8,573.73	56.3489	8,573.73	42.7436	8,573.73	59.0563	8,573.73	30.9976	8,573.73	60.9842	8,573.73	48.6929	8,573.73	57.0878	8,573.73	49.3485	8,573.73	49.6681
8,876.95	82.1544	8,876.95	82.8084	8,876.95	82.1039	8,876.95	82.4464	8,876.95	81.4163	8,876.95	82.2814	8,876.95	81.366	8,876.95	80.8391	8,876.95	80.5112	8,876.95	78.2923	8,876.95	78.2879	8,876.95	75.6394	8,876.95	76.5953	8,876.95	70.0378	8,876.95	42.1165	8,876.95	67.3351	8,876.95	69.1374	8,876.95	63.4449	8,876.95	54.0314	8,876.95	56.8422	8,876.95	59.4623	8,876.95	58.4727	8,876.95	53.324	8,876.95	58.8519	8,876.95	50.4928	8,876.95	55.2722	8,876.95	39.8807	8,876.95	55.9535	8,876.95	50.693	8,876.95	58.8159	8,876.95	49.8879	8,876.95	59.0429	8,876.95	49.1679	8,876.95	56.4856	8,876.95	41.3995	8,876.95	50.0885
9,188.96	82.5863	9,188.96	83.0499	9,188.96	82.2788	9,188.96	82.9771	9,188.96	82.06	9,188.96	82.3134	9,188.96	78.9412	9,188.96	80.74	9,188.96	78.8003	9,188.96	77.8217	9,188.96	79.0564	9,188.96	74.2838	9,188.96	72.5215	9,188.96	68.879	9,188.96	66.9711	9,188.96	64.5892	9,188.96	65.8156	9,188.96	61.0365	9,188.96	60.073	9,188.96	58.3101	9,188.96	59.1349	9,188.96	57.2632	9,188.96	53.6198	9,188.96	53.6059	9,188.96	45.3349	9,188.96	51.4213	9,188.96	49.9799	9,188.96	56.4064	9,188.96	51.4132	9,188.96	59.9021	9,188.96	50.1462	9,188.96	59.695	9,188.96	42.9489	9,188.96	55.9401	9,188.96	43.7424	9,188.96	48.7316
9,514.16	82.7232	9,514.16	83.176	9,514.16	82.3694	9,514.16	82.5895	9,514.16	82.0384	9,514.16	81.5183	9,514.16	81.5224	9,514.16	79.6582	9,514.16	79.263	9,514.16	75.8211	9,514.16	79.1133	9,514.16	73.054	9,514.16	67.3844	9,514.16	66.3343	9,514.16	68.3895	9,514.16	63.7283	9,514.16	66.7738	9,514.16	60.1944	9,514.16	60.9218	9,514.16	54.9023	9,514.16	42.2764	9,514.16	57.354	9,514.16	49.5327	9,514.16	55.3483	9,514.16	46.8929	9,514.16	49.6699	9,514.16	45.6202	9,514.16	53.2745	9,514.16	48.4059	9,514.16	55.5704	9,514.16	48.9164	9,514.16	56.4094	9,514.16	48.3081	9,514.16	53.4801	9,514.16	42.2767	9,514.16	47.6455
9,849.61	83.047	9,849.61	83.2446	9,849.61	83.12	9,849.61	82.2631	9,849.61	82.4675	9,849.61	80.8078	9,849.61	82.4142	9,849.61	77.8706	9,849.61	79.11	9,849.61	74.2529	9,849.61	77.8698	9,849.61	71.0803	9,849.61	68.0043	9,849.61	64.9268	9,849.61	64.6354	9,849.61	62.0102	9,849.61	63.3668	9,849.61	55.7765	9,849.61	54.9007	9,849.61	53.3033	9,849.61	60.1757	9,849.61	48.1319	9,849.61	39.2936	9,849.61	51.8837	9,849.61	38.9199	9,849.61	54.1325	9,849.61	50.8946	9,849.61	51.4211	9,849.61	48.5677	9,849.61	53.1412	9,849.61	46.9346	9,849.61	51.479	9,849.61	46.4115	9,849.61	49.9344	9,849.61	42.4079	9,849.61	45.6239
10,196.8	83.3945	10,196.8	83.4556	10,196.8	83.2084	10,196.8	82.612	10,196.8	82.2475	10,196.8	80.6876	10,196.8	81.1443	10,196.8	77.1964	10,196.8	78.9513	10,196.8	73.6911	10,196.8	73.0045	10,196.8	70.2458	10,196.8	69.4443	10,196.8	63.243	10,196.8	60.1783	10,196.8	55.4226	10,196.8	62.6049	10,196.8	57.2933	10,196.8	53.7773	10,196.8	41.6917	10,196.8	53.6037	10,196.8	55.9199	10,196.8	55.2327	10,196.8	51.9091	10,196.8	46.3096	10,196.8	46.9722	10,196.8	49.9335	10,196.8	50.3843	10,196.8	38.8828	10,196.8	48.059	10,196.8	43.1815	10,196.8	50.7721	10,196.8	46.5199	10,196.8	49.908	10,196.8	40.9332	10,196.8	41.7813
10,555.7	83.375	10,555.7	83.0276	10,555.7	82.8936	10,555.7	82.3213	10,555.7	81.8566	10,555.7	80.356	10,555.7	79.8085	10,555.7	77.4179	10,555.7	78.0909	10,555.7	73.0801	10,555.7	69.2918	10,555.7	70.198	10,555.7	70.279	10,555.7	61.3743	10,555.7	59.1125	10,555.7	58.4584	10,555.7	61.7787	10,555.7	55.3841	10,555.7	57.2564	10,555.7	48.9116	10,555.7	52.3511	10,555.7	43.5197	10,555.7	50.3644	10,555.7	45.0344	10,555.7	47.923	10,555.7	43.555	10,555.7	38.5524	10,555.7	51.7451	10,555.7	35.3479	10,555.7	51.1421	10,555.7	39.5151	10,555.7	51.4042	10,555.7	38.3158	10,555.7	49.4219	10,555.7	44.0285	10,555.7	37.1564
10,927.7	82.9748	10,927.7	82.7746	10,927.7	82.6896	10,927.7	82.0486	10,927.7	81.5914	10,927.7	80.2246	10,927.7	80.4306	10,927.7	76.7838	10,927.7	75.359	10,927.7	72.2637	10,927.7	70.482	10,927.7	69.6816	10,927.7	69.637	10,927.7	61.5672	10,927.7	59.9905	10,927.7	56.4917	10,927.7	59.3946	10,927.7	50.2834	10,927.7	53.9095	10,927.7	48.2622	10,927.7	44.2857	10,927.7	51.2642	10,927.7	54.1403	10,927.7	43.7795	10,927.7	34.2294	10,927.7	51.3318	10,927.7	40.28	10,927.7	43.447	10,927.7	33.5927	10,927.7	46.7359	10,927.7	41.0327	10,927.7	49.3476	10,927.7	42.1341	10,927.7	49.6888	10,927.7	36.1574	10,927.7	30.5607
11,313	82.9575	11,313	82.6401	11,313	83.1719	11,313	81.9568	11,313	82.4123	11,313	79.9602	11,313	80.7099	11,313	76.7437	11,313	74.1357	11,313	71.585	11,313	71.7443	11,313	68.7788	11,313	66.5474	11,313	59.3528	11,313	52.2872	11,313	55.8949	11,313	55.9841	11,313	54.221	11,313	44.5296	11,313	49.6265	11,313	53.7248	11,313	46.6078	11,313	47.3104	11,313	46.2633	11,313	41.3772	11,313	49.6881	11,313	37.1256	11,313	45.4561	11,313	37.7076	11,313	45.9433	11,313	39.915	11,313	46.6354	11,313	44.3803	11,313	49.3537	11,313	34.2696	11,313	24.5503
11,712.9	82.9986	11,712.9	82.8782	11,712.9	82.8937	11,712.9	82.6804	11,712.9	82.0157	11,712.9	80.2833	11,712.9	80.1667	11,712.9	76.5513	11,712.9	75.8056	11,712.9	70.2174	11,712.9	71.9921	11,712.9	66.2362	11,712.9	65.8705	11,712.9	55.2955	11,712.9	54.6671	11,712.9	48.9635	11,712.9	51.9689	11,712.9	46.4389	11,712.9	47.6743	11,712.9	31.1898	11,712.9	50.9963	11,712.9	32.3276	11,712.9	50.0971	11,712.9	39.1134	11,712.9	38.3056	11,712.9	46.0069	11,712.9	41.5775	11,712.9	44.0279	11,712.9	43.7027	11,712.9	39.0525	11,712.9	39.2658	11,712.9	44.0314	11,712.9	44.3909	11,712.9	45.4618	11,712.9	35.1331	11,712.9	33.167
12,126	82.7774	12,126	82.5632	12,126	82.6858	12,126	82.2053	12,126	81.9469	12,126	79.5691	12,126	80.2317	12,126	75.1187	12,126	76.348	12,126	67.4392	12,126	71.1256	12,126	62.2734	12,126	63.7437	12,126	46.4512	12,126	53.2799	12,126	43.1603	12,126	52.7465	12,126	46.3829	12,126	55.2798	12,126	42.9818	12,126	44.2358	12,126	44.3165	12,126	53.9856	12,126	42.0007	12,126	38.6839	12,126	44.5209	12,126	41.7088	12,126	42.6699	12,126	38.3526	12,126	43.123	12,126	44.1957	12,126	40.6656	12,126	42.4524	12,126	43.4797	12,126	34.4883	12,126	35.0875
12,553.7	82.338	12,553.7	82.3607	12,553.7	82.1953	12,553.7	81.7336	12,553.7	81.5074	12,553.7	78.3785	12,553.7	79.6758	12,553.7	74.0126	12,553.7	75.3685	12,553.7	64.3177	12,553.7	69.7199	12,553.7	59.5173	12,553.7	56.3178	12,553.7	52.3291	12,553.7	56.9372	12,553.7	45.5711	12,553.7	54.3895	12,553.7	45.7312	12,553.7	52.411	12,553.7	48.9003	12,553.7	51.4993	12,553.7	42.7893	12,553.7	54.6745	12,553.7	46.1609	12,553.7	43.8521	12,553.7	46.6387	12,553.7	37.6378	12,553.7	42.9559	12,553.7	38.2947	12,553.7	44.1782	12,553.7	40.8043	12,553.7	41.6005	12,553.7	43.3228	12,553.7	41.0775	12,553.7	40.673	12,553.7	29.0052
12,996.1	81.545	12,996.1	81.8397	12,996.1	81.6605	12,996.1	81.5252	12,996.1	80.808	12,996.1	77.9946	12,996.1	78.8725	12,996.1	73.3103	12,996.1	74.5643	12,996.1	63.8857	12,996.1	68.5966	12,996.1	57.0891	12,996.1	57.3706	12,996.1	52.639	12,996.1	59.3831	12,996.1	53.5286	12,996.1	44.0124	12,996.1	52.1682	12,996.1	48.5123	12,996.1	50.4335	12,996.1	52.4219	12,996.1	39.957	12,996.1	56.726	12,996.1	48.0829	12,996.1	41.3346	12,996.1	48.8319	12,996.1	40.0388	12,996.1	46.0333	12,996.1	36.6999	12,996.1	45.7502	12,996.1	25.568	12,996.1	36.3084	12,996.1	44.0167	12,996.1	38.7874	12,996.1	41.9244	12,996.1	30.5825
13,454.6	79.9416	13,454.6	80.9496	13,454.6	80.3388	13,454.6	80.8433	13,454.6	80.1395	13,454.6	77.466	13,454.6	78.4697	13,454.6	73.146	13,454.6	74.6113	13,454.6	63.0738	13,454.6	68.8181	13,454.6	58.0264	13,454.6	58.7391	13,454.6	61.3756	13,454.6	60.3477	13,454.6	58.8784	13,454.6	43.6397	13,454.6	55.5086	13,454.6	50.7567	13,454.6	50.1259	13,454.6	51.4825	13,454.6	47.6888	13,454.6	58.4297	13,454.6	52.4614	13,454.6	43.9599	13,454.6	49.7481	13,454.6	40.6124	13,454.6	46.3787	13,454.6	39.0128	13,454.6	48.2861	13,454.6	28.4559	13,454.6	31.7514	13,454.6	41.9532	13,454.6	39.2759	13,454.6	38.9224	13,454.6	35.5054
13,929.2	79.4403	13,929.2	81.0996	13,929.2	80.6387	13,929.2	81.5274	13,929.2	80.6591	13,929.2	78.72	13,929.2	79.3647	13,929.2	74.9799	13,929.2	74.9631	13,929.2	67.3136	13,929.2	65.6468	13,929.2	64.2068	13,929.2	63.2027	13,929.2	64.5189	13,929.2	61.4915	13,929.2	62.4276	13,929.2	52.1513	13,929.2	57.8022	13,929.2	51.8463	13,929.2	53.7786	13,929.2	56.5534	13,929.2	51.1619	13,929.2	63.087	13,929.2	54.4645	13,929.2	48.6381	13,929.2	53.1843	13,929.2	46.9301	13,929.2	47.4633	13,929.2	40.4303	13,929.2	50.7096	13,929.2	42.7953	13,929.2	32.6103	13,929.2	43.3543	13,929.2	41.6297	13,929.2	40.5454	13,929.2	33.1156
14,419.9	79.578	14,419.9	80.855	14,419.9	80.4214	14,419.9	80.6863	14,419.9	80.1575	14,419.9	78.3724	14,419.9	78.0675	14,419.9	74.8159	14,419.9	73.8571	14,419.9	65.3316	14,419.9	65.1303	14,419.9	66.2977	14,419.9	66.599	14,419.9	65.0829	14,419.9	65.2018	14,419.9	61.2145	14,419.9	45.998	14,419.9	56.9263	14,419.9	47.8126	14,419.9	52.6647	14,419.9	58.0068	14,419.9	49.7277	14,419.9	62.5119	14,419.9	53.0917	14,419.9	43.3837	14,419.9	49.9651	14,419.9	44.243	14,419.9	40.4642	14,419.9	37.7088	14,419.9	45.6188	14,419.9	42.9194	14,419.9	36.7032	14,419.9	45.6144	14,419.9	24.6903	14,419.9	42.3316	14,419.9	30.3261
14,928.2	80.704	14,928.2	80.9678	14,928.2	81.0278	14,928.2	80.4063	14,928.2	79.7855	14,928.2	77.3339	14,928.2	77.8433	14,928.2	74.1588	14,928.2	73.1029	14,928.2	64.5824	14,928.2	66.0526	14,928.2	67.1886	14,928.2	67.0982	14,928.2	63.8601	14,928.2	65.9328	14,928.2	59.6177	14,928.2	54.7367	14,928.2	56.1461	14,928.2	51.4021	14,928.2	49.0935	14,928.2	54.9972	14,928.2	48.4726	14,928.2	61.5225	14,928.2	51.7596	14,928.2	43.4526	14,928.2	47.966	14,928.2	40.8364	14,928.2	38.1897	14,928.2	41.5188	14,928.2	44.0342	14,928.2	39.4887	14,928.2	42.9479	14,928.2	44.8603	14,928.2	36.0796	14,928.2	41.9485	14,928.2	27.2657
15,455.6	82.1684	15,455.6	81.3841	15,455.6	81.6441	15,455.6	80.1314	15,455.6	79.7505	15,455.6	76.9153	15,455.6	76.3125	15,455.6	72.2773	15,455.6	72.4238	15,455.6	64.166	15,455.6	68.9109	15,455.6	67.1009	15,455.6	68.6709	15,455.6	63.1062	15,455.6	59.1762	15,455.6	57.5313	15,455.6	54.0213	15,455.6	55.3853	15,455.6	44.6603	15,455.6	46.3913	15,455.6	54.9056	15,455.6	50.431	15,455.6	60.6708	15,455.6	50.5644	15,455.6	48.1936	15,455.6	48.457	15,455.6	49.9367	15,455.6	39.2133	15,455.6	46.5015	15,455.6	45.6141	15,455.6	47.5773	15,455.6	40.0409	15,455.6	48.6619	15,455.6	39.7812	15,455.6	42.2358	15,455.6	28.6547
16,000.5	82.9897	16,000.5	81.5677	16,000.5	81.9348	16,000.5	79.5586	16,000.5	79.3607	16,000.5	75.7059	16,000.5	76.0839	16,000.5	69.3239	16,000.5	67.7157	16,000.5	66.6384	16,000.5	67.1676	16,000.5	66.652	16,000.5	65.879	16,000.5	61.9306	16,000.5	59.7166	16,000.5	57.4546	16,000.5	47.2751	16,000.5	54.597	16,000.5	36.144	16,000.5	47.2323	16,000.5	51.2422	16,000.5	47.5137	16,000.5	60.7664	16,000.5	49.2898	16,000.5	46.969	16,000.5	46.3677	16,000.5	46.1741	16,000.5	38.1692	16,000.5	39.8419	16,000.5	42.3262	16,000.5	45.82	16,000.5	40.4264	16,000.5	46.1829	16,000.5	37.9644	16,000.5	41.2028	16,000.5	31.9176
16,564.5	83.3129	16,564.5	81.0998	16,564.5	82.1463	16,564.5	78.3159	16,564.5	79.293	16,564.5	74.4567	16,564.5	75.1364	16,564.5	67.61	16,564.5	67.7229	16,564.5	67.4477	16,564.5	65.4508	16,564.5	65.3448	16,564.5	67.2606	16,564.5	62.3656	16,564.5	53.6468	16,564.5	56.5888	16,564.5	54.326	16,564.5	53.4225	16,564.5	41.9335	16,564.5	44.1486	16,564.5	51.323	16,564.5	46.4684	16,564.5	60.4414	16,564.5	48.323	16,564.5	44.6911	16,564.5	46.3881	16,564.5	36.9347	16,564.5	40.4611	16,564.5	35.4594	16,564.5	41.4932	16,564.5	40.463	16,564.5	43.4357	16,564.5	45.2059	16,564.5	39.8264	16,564.5	36.0919	16,564.5	24.5849
17,148.9	83.5606	17,148.9	80.9002	17,148.9	82.0442	17,148.9	76.9029	17,148.9	78.5904	17,148.9	73.3672	17,148.9	74.081	17,148.9	66.1593	17,148.9	65.5816	17,148.9	64.6035	17,148.9	64.9746	17,148.9	62.7767	17,148.9	66.1614	17,148.9	60.0604	17,148.9	57.0082	17,148.9	56.0978	17,148.9	56.7141	17,148.9	52.6711	17,148.9	35.6966	17,148.9	44.513	17,148.9	50.2897	17,148.9	46.6541	17,148.9	59.0058	17,148.9	46.2665	17,148.9	44.783	17,148.9	43.8365	17,148.9	40.853	17,148.9	38.7185	17,148.9	33.9489	17,148.9	39.8426	17,148.9	42.4704	17,148.9	42.2109	17,148.9	42.527	17,148.9	33.6198	17,148.9	21.8807	17,148.9	31.5634
17,752.4	83.2272	17,752.4	80.6374	17,752.4	81.147	17,752.4	75.7719	17,752.4	76.6998	17,752.4	70.1201	17,752.4	69.2523	17,752.4	62.5521	17,752.4	59.2671	17,752.4	59.7758	17,752.4	61.7187	17,752.4	61.155	17,752.4	62.2099	17,752.4	58.0236	17,752.4	56.3219	17,752.4	54.7284	17,752.4	56.5324	17,752.4	50.9343	17,752.4	43.921	17,752.4	40.4854	17,752.4	45.9026	17,752.4	44.7221	17,752.4	55.4929	17,752.4	44.0719	17,752.4	39.1641	17,752.4	40.5244	17,752.4	38.0463	17,752.4	38.2021	17,752.4	38.4431	17,752.4	40.3041	17,752.4	36.7268	17,752.4	39.3517	17,752.4	42.7006	17,752.4	36.3305	17,752.4	28.6922	17,752.4	29.767
18,379.4	82.0748	18,379.4	79.8665	18,379.4	80.0326	18,379.4	74.3689	18,379.4	75.2168	18,379.4	64.9403	18,379.4	66.9554	18,379.4	54.4467	18,379.4	58.8739	18,379.4	58.5581	18,379.4	59.3325	18,379.4	60.3495	18,379.4	59.3717	18,379.4	57.3607	18,379.4	58.6348	18,379.4	50.4409	18,379.4	51.1809	18,379.4	45.9106	18,379.4	35.1073	18,379.4	37.2109	18,379.4	42.6837	18,379.4	40.6505	18,379.4	51.1473	18,379.4	39.1372	18,379.4	22.7947	18,379.4	31.0764	18,379.4	30.1576	18,379.4	27.3704	18,379.4	36.3335	18,379.4	35.1567	18,379.4	23.4916	18,379.4	39.1572	18,379.4	31.1843	18,379.4	31.0324	18,379.4	30.5005	18,379.4	7.97266
19,026.9	80.7251	19,026.9	78.7123	19,026.9	78.7845	19,026.9	73.0295	19,026.9	73.9867	19,026.9	60.477	19,026.9	64.63	19,026.9	49.9598	19,026.9	58.2209	19,026.9	58.4519	19,026.9	58.1095	19,026.9	59.2899	19,026.9	55.6723	19,026.9	56.1206	19,026.9	52.9087	19,026.9	48.2776	19,026.9	46.3162	19,026.9	43.57	19,026.9	36.0358	19,026.9	35.595	19,026.9	32.6981	19,026.9	36.3006	19,026.9	51.2453	19,026.9	35.9508	19,026.9	31.9806	19,026.9	26.0017	19,026.9	17.7648	19,026.9	27.6872	19,026.9	32.1027	19,026.9	29.7022	19,026.9	24.0633	19,026.9	39.3111	19,026.9	24.093	19,026.9	32.7119	19,026.9	29.8402	19,026.9	22.528
19,697.8	79.5099	19,697.8	77.5576	19,697.8	77.594	19,697.8	71.8065	19,697.8	72.8519	19,697.8	56.4438	19,697.8	63.1063	19,697.8	54.3193	19,697.8	54.2953	19,697.8	58.0308	19,697.8	57.8236	19,697.8	58.3417	19,697.8	55.6228	19,697.8	54.0684	19,697.8	48.3838	19,697.8	45.8054	19,697.8	44.5647	19,697.8	39.5917	19,697.8	29.2399	19,697.8	33.9011	19,697.8	39.6742	19,697.8	31.2485	19,697.8	51.4083	19,697.8	29.9544	19,697.8	30.867	19,697.8	15.3243	19,697.8	24.3688	19,697.8	30.5596	19,697.8	25.9263	19,697.8	21.5541	19,697.8	29.0126	19,697.8	38.1197	19,697.8	31.5665	19,697.8	30.103	19,697.8	28.4035	19,697.8	24.5073
19,999.5	79.1583	19,999.5	77.1077	19,999.5	77.006	19,999.5	71.1224	19,999.5	72.317	19,999.5	55.1463	19,999.5	61.5488	19,999.5	55.0664	19,999.5	55.7536	19,999.5	56.8191	19,999.5	58.4419	19,999.5	58.0862	19,999.5	52.4503	19,999.5	51.7712	19,999.5	43.3898	19,999.5	44.5068	19,999.5	36.1478	19,999.5	38.6901	19,999.5	44.8774	19,999.5	31.634	19,999.5	42.0936	19,999.5	30.8984	19,999.5	51.4087	19,999.5	39.6814	19,999.5	28.0982	19,999.5	24.969	19,999.5	29.7046	19,999.5	38.0596	19,999.5	37.0932	19,999.5	36.3759	19,999.5	37.734	19,999.5	34.1968	19,999.5	40.561	19,999.5	36.2439	19,999.5	34.344	19,999.5	33.687
