"Early Reflections"											
"Floor Bounce"		"Ceiling Bounce"		"Front Wall Bounce"		"Side Wall Bounce"		"Rear Wall Bounce"		"Total Early Reflection"	
"Frequency [Hz]"	"Sound Pessure Level [dB]  / [2.83V 1m] "	"Frequency [Hz]"	"Sound Pessure Level [dB]  / [2.83V 1m] "	"Frequency [Hz]"	"Sound Pessure Level [dB]  / [2.83V 1m] "	"Frequency [Hz]"	"Sound Pessure Level [dB]  / [2.83V 1m] "	"Frequency [Hz]"	"Sound Pessure Level [dB]  / [2.83V 1m] "	"Frequency [Hz]"	"Sound Pessure Level [dB]  / [2.83V 1m] "
20.5078	59.9002	20.5078	62.8309	20.5078	60.4536	20.5078	62.2517	20.5078	66.6209	20.5078	62.5743
21.9727	64.3215	21.9727	66.3416	21.9727	64.6505	21.9727	65.851	21.9727	69.3073	21.9727	66.083
23.4375	67.1353	23.4375	68.8619	23.4375	67.393	23.4375	68.4291	23.4375	71.638	23.4375	68.6468
24.9023	70.229	24.9023	71.6781	24.9023	70.3996	24.9023	71.3468	24.9023	74.2268	24.9023	71.512
26.3672	73.5428	26.3672	74.5097	26.3672	73.6351	26.3672	74.3308	26.3672	76.6674	26.3672	74.4511
27.832	76.0091	27.832	76.9299	27.832	76.0611	27.832	76.8374	27.832	79.1462	27.832	76.9206
29.2969	78.3853	29.2969	79.0629	29.2969	78.3924	29.2969	79.0537	29.2969	81.0219	29.2969	79.1051
30.7617	80.4073	30.7617	80.9908	30.7617	80.4109	30.7617	81.0014	30.7617	82.7287	30.7617	81.0321
32.2266	81.9351	32.2266	82.3407	32.2266	81.8926	32.2266	82.4328	32.2266	83.9844	32.2266	82.4464
33.6914	83.0854	33.6914	83.3828	33.6914	83.0157	33.6914	83.5113	33.6914	84.9127	33.6914	83.5146
35.1562	84.1986	35.1562	84.395	35.1562	84.1047	35.1562	84.5614	35.1562	85.8077	35.1562	84.5523
36.6211	84.9655	36.6211	85.0713	36.6211	84.8534	36.6211	85.269	36.6211	86.3799	36.6211	85.2522
38.0859	85.5281	38.0859	85.5663	38.0859	85.4029	38.0859	85.7837	38.0859	86.7807	38.0859	85.7617
39.5508	85.8598	39.5508	85.8367	39.5508	85.7234	39.5508	86.0718	39.5508	86.9593	39.5508	86.0449
41.0156	86.0943	41.0156	86.006	41.0156	85.9386	41.0156	86.2633	41.0156	87.064	41.0156	86.2325
42.4805	86.3314	42.4805	86.2044	42.4805	86.1683	42.4805	86.4651	42.4805	87.1693	42.4805	86.4316
43.9453	86.5315	43.9453	86.3585	43.9453	86.3566	43.9453	86.6317	43.9453	87.2582	43.9453	86.5956
45.4102	86.7443	45.4102	86.5402	45.4102	86.5632	45.4102	86.8226	45.4102	87.3877	45.4102	86.7838
46.875	86.85	46.875	86.6022	46.875	86.6594	46.875	86.9074	46.875	87.4224	46.875	86.8648
48.3398	86.9614	48.3398	86.6798	48.3398	86.7685	48.3398	86.9853	48.3398	87.4121	48.3398	86.9431
51.2695	87.1089	51.2695	86.7487	51.2695	86.9031	51.2695	87.0795	51.2695	87.3966	51.2695	87.0374
52.7344	87.1801	52.7344	86.7983	52.7344	86.9703	52.7344	87.1339	52.7344	87.4079	52.7344	87.0912
54.1992	87.285	54.1992	86.8726	54.1992	87.0701	54.1992	87.2102	54.1992	87.4209	54.1992	87.169
55.6641	87.2744	55.6641	86.8459	55.6641	87.0561	55.6641	87.1883	55.6641	87.3677	55.6641	87.1462
58.5938	87.4144	58.5938	86.9536	58.5938	87.19	58.5938	87.3039	58.5938	87.4238	58.5938	87.2615
60.0586	87.4919	60.0586	87.0049	60.0586	87.2625	60.0586	87.3583	60.0586	87.4364	60.0586	87.3182
62.9883	87.6145	62.9883	87.0691	62.9883	87.3711	62.9883	87.441	62.9883	87.4644	62.9883	87.4042
64.4531	87.6593	64.4531	87.0862	64.4531	87.4093	64.4531	87.4657	64.4531	87.4583	64.4531	87.4305
67.3828	87.6972	67.3828	87.0637	67.3828	87.4228	67.3828	87.4739	67.3828	87.4507	67.3828	87.4387
68.8477	87.7896	68.8477	87.1425	68.8477	87.5066	68.8477	87.5537	68.8477	87.5272	68.8477	87.5206
71.7773	87.9533	71.7773	87.2872	71.7773	87.6741	71.7773	87.6866	71.7773	87.5894	71.7773	87.6598
74.707	87.9746	74.707	87.3777	74.707	87.7337	74.707	87.7439	74.707	87.6442	74.707	87.7165
77.6367	88.0738	77.6367	87.4029	77.6367	87.8143	77.6367	87.8004	77.6367	87.664	77.6367	87.7773
79.1016	88.0888	79.1016	87.3932	79.1016	87.8216	79.1016	87.7977	79.1016	87.6489	79.1016	87.7774
82.0312	88.1327	82.0312	87.3966	82.0312	87.8522	82.0312	87.8118	82.0312	87.635	82.0312	87.7954
84.9609	88.1785	84.9609	87.4175	84.9609	87.8919	84.9609	87.8406	84.9609	87.643	84.9609	87.8262
87.8906	88.1775	87.8906	87.4133	87.8906	87.8956	87.8906	87.8268	87.8906	87.6081	87.8906	87.8175
90.8203	88.1395	90.8203	87.3151	90.8203	87.838	90.8203	87.7602	90.8203	87.5345	90.8203	87.7529
95.2148	88.1143	95.2148	87.2295	95.2148	87.7985	95.2148	87.6855	95.2148	87.3982	95.2148	87.6863
98.1445	87.9959	98.1445	87.1466	98.1445	87.6955	98.1445	87.5952	98.1445	87.3455	98.1445	87.5938
101.074	87.7721	101.074	86.9247	101.074	87.4962	101.074	87.3921	101.074	87.178	101.074	87.3911
105.469	87.7229	105.469	86.8078	105.469	87.4625	105.469	87.2415	105.469	86.8535	105.469	87.2707
108.398	87.7353	108.398	86.8015	108.398	87.4749	108.398	87.2412	108.398	86.7785	108.398	87.2673
112.793	87.7785	112.793	86.7905	112.793	87.4523	112.793	87.2295	112.793	86.7767	112.793	87.2607
117.188	87.5959	117.188	86.6825	117.188	87.3165	117.188	87.0766	117.188	86.6593	117.188	87.1171
120.117	87.5002	120.117	86.5736	120.117	87.2262	120.117	86.9731	120.117	86.537	120.117	87.0158
124.512	87.4131	124.512	86.3432	124.512	87.0764	124.512	86.7988	124.512	86.3762	124.512	86.8554
128.906	87.3124	128.906	86.2369	128.906	86.9949	128.906	86.69	128.906	86.2511	128.906	86.754
133.301	87.3315	133.301	86.16	133.301	86.9869	133.301	86.6203	133.301	86.0765	133.301	86.7023
139.16	87.2208	139.16	85.9576	139.16	86.8625	139.16	86.4501	139.16	85.8694	139.16	86.5464
143.555	87.0961	143.555	85.7926	143.555	86.7318	143.555	86.3027	143.555	85.6977	143.555	86.4027
147.949	86.9533	147.949	85.5162	147.949	86.5451	147.949	86.1009	147.949	85.5308	147.949	86.2094
153.809	86.8586	153.809	85.2774	153.809	86.4699	153.809	85.8987	153.809	85.2651	153.809	86.0495
159.668	87.0239	159.668	85.6166	159.668	86.6823	159.668	86.0856	159.668	85.3709	159.668	86.2482
165.527	86.7909	165.527	85.423	165.527	86.4921	165.527	85.8839	165.527	85.24	165.527	86.0532
171.387	86.8834	171.387	85.3657	171.387	86.5445	171.387	85.8388	171.387	85.0056	171.387	86.0376
177.246	86.662	177.246	85.1552	177.246	86.3278	177.246	85.6227	177.246	84.7448	177.246	85.817
183.105	86.4975	183.105	84.9825	183.105	86.187	183.105	85.4388	183.105	84.6019	183.105	85.6537
188.965	86.6515	188.965	85.0445	188.965	86.3393	188.965	85.5103	188.965	84.6393	188.965	85.7576
196.289	86.6792	196.289	84.8174	196.289	86.311	196.289	85.3462	196.289	84.4617	196.289	85.656
203.613	86.8351	203.613	84.9857	203.613	86.5923	203.613	85.427	203.613	84.1821	203.613	85.7899
210.938	86.5565	210.938	84.8359	210.938	86.3188	210.938	85.3378	210.938	84.0216	210.938	85.6025
218.262	86.3822	218.262	84.5375	218.262	86.0501	218.262	84.9838	218.262	83.8803	218.262	85.3245
225.586	86.8106	225.586	84.7966	225.586	86.5289	225.586	85.2749	225.586	84.0255	225.586	85.6817
232.91	87.0155	232.91	84.7474	232.91	86.7046	232.91	85.3058	232.91	83.7526	232.91	85.7565
241.699	86.6014	241.699	84.224	241.699	86.2967	241.699	85.1316	241.699	83.5091	241.699	85.4319
250.488	87.4301	250.488	84.6207	250.488	86.9073	250.488	85.3937	250.488	83.4578	250.488	85.8897
259.277	87.3481	259.277	84.6602	259.277	86.9186	259.277	85.4502	259.277	83.5469	259.277	85.909
268.066	86.761	268.066	84.1785	268.066	86.3403	268.066	84.9311	268.066	82.9249	268.066	85.3553
276.855	86.4372	276.855	84.2875	276.855	86.198	276.855	84.9315	276.855	82.9495	276.855	85.2689
287.109	86.4011	287.109	84.4435	287.109	86.2621	287.109	84.808	287.109	83.1349	287.109	85.2691
297.363	86.8221	297.363	84.5595	297.363	86.9408	297.363	85.1532	297.363	82.4946	297.363	85.6593
307.617	87.2378	307.617	84.5895	307.617	87.0494	307.617	85.5221	307.617	83.0148	307.617	85.922
319.336	87.2522	319.336	84.4536	319.336	86.9923	319.336	85.2724	319.336	82.6474	319.336	85.785
329.59	86.8505	329.59	84.6616	329.59	86.8849	329.59	85.462	329.59	82.715	329.59	85.7734
341.309	86.5027	341.309	84.5142	341.309	86.7297	341.309	85.1281	341.309	82.1989	341.309	85.5072
353.027	86.041	353.027	84.9331	353.027	86.4614	353.027	85.5896	353.027	82.842	353.027	85.5992
366.211	86.256	366.211	85.0914	366.211	86.5807	366.211	85.6201	366.211	82.7228	366.211	85.6867
379.395	86.699	379.395	85.5403	379.395	86.8191	379.395	85.9919	379.395	83.1117	379.395	86.0332
392.578	85.9611	392.578	85.1876	392.578	86.0663	392.578	85.552	392.578	83.2014	392.578	85.4984
405.762	86.0679	405.762	84.3265	405.762	86.056	405.762	85.15	405.762	82.9944	405.762	85.2553
420.41	86.1606	420.41	84.3545	420.41	86.2358	420.41	85.1795	420.41	82.5469	420.41	85.3119
435.059	86.3058	435.059	84.6259	435.059	86.3113	435.059	85.1757	435.059	82.5147	435.059	85.38
451.172	86.4143	451.172	83.4753	451.172	85.6044	451.172	85.0592	451.172	83.2069	451.172	85.072
465.82	87.1431	465.82	82.894	465.82	86.1729	465.82	84.0756	465.82	81.9679	465.82	84.9168
483.398	86.4498	483.398	82.5726	483.398	86.0681	483.398	83.9109	483.398	81.1262	483.398	84.6284
499.512	87.7558	499.512	82.3375	499.512	87.4969	499.512	85.1312	499.512	81.4951	499.512	85.8151
517.09	87.0823	517.09	82.4318	517.09	87.1524	517.09	85.5037	517.09	82.8102	517.09	85.7693
536.133	86.8434	536.133	82.2675	536.133	87.1398	536.133	85.0708	536.133	82.0729	536.133	85.5243
555.176	86.586	555.176	82.1154	555.176	86.8637	555.176	84.8848	555.176	81.5139	555.176	85.2751
574.219	87.1992	574.219	81.9502	574.219	86.6341	574.219	84.6496	574.219	81.9698	574.219	85.2246
594.727	86.5295	594.727	82.1071	594.727	86.5187	594.727	84.1524	594.727	81.09	594.727	84.8616
615.234	85.6651	615.234	82.5033	615.234	86.0658	615.234	83.6856	615.234	80.1865	615.234	84.3741
637.207	86.8378	637.207	82.4055	637.207	86.5738	637.207	83.7226	637.207	80.8572	637.207	84.8115
659.18	85.9306	659.18	83.1254	659.18	86.4094	659.18	84.0767	659.18	80.1584	659.18	84.7273
682.617	85.639	682.617	83.6619	682.617	86.1791	682.617	83.5882	682.617	80.2786	682.617	84.4863
707.52	86.404	707.52	84.4575	707.52	86.0863	707.52	83.1727	707.52	80.0934	707.52	84.527
732.422	85.4031	732.422	84.5333	732.422	85.8772	732.422	83.0121	732.422	79.2773	732.422	84.2115
757.324	85.5277	757.324	83.962	757.324	85.9321	757.324	82.7115	757.324	79.0192	757.324	84.0903
785.156	85.1751	785.156	84.355	785.156	86.4227	785.156	82.8409	785.156	78.545	785.156	84.3107
811.523	85.4836	811.523	83.8909	811.523	86.5978	811.523	82.9488	811.523	78.3971	811.523	84.407
840.82	86.1154	840.82	84.8538	840.82	87.2113	840.82	83.3845	840.82	77.559	840.82	84.9767
870.117	86.3371	870.117	84.8283	870.117	87.5766	870.117	83.8189	870.117	78.4641	870.117	85.3094
900.879	87.5194	900.879	85.3556	900.879	87.595	900.879	83.4488	900.879	75.6117	900.879	85.426
933.105	86.9367	933.105	84.1312	933.105	87.7092	933.105	83.3412	933.105	76.7381	933.105	85.24
965.332	86.5922	965.332	83.0365	965.332	87.2867	965.332	83.0898	965.332	76.4372	965.332	84.8206
1,000.49	86.7006	1,000.49	83.7887	1,000.49	86.6438	1,000.49	82.8016	1,000.49	76.0298	1,000.49	84.5306
1,035.64	86.6877	1,035.64	83.3283	1,035.64	86.3562	1,035.64	82.3318	1,035.64	75.1411	1,035.64	84.2252
1,072.27	87.0638	1,072.27	82.8485	1,072.27	85.4541	1,072.27	81.314	1,072.27	74.1078	1,072.27	83.626
1,108.89	86.3261	1,108.89	83.2103	1,108.89	85.4523	1,108.89	80.3896	1,108.89	73.2322	1,108.89	83.2769
1,148.44	86.1232	1,148.44	82.8185	1,148.44	85.1487	1,148.44	79.8451	1,148.44	73.7798	1,148.44	82.9515
1,189.45	85.2042	1,189.45	81.8074	1,189.45	85.2898	1,189.45	80.0115	1,189.45	72.7658	1,189.45	82.7299
1,230.47	85.674	1,230.47	81.4773	1,230.47	85.8401	1,230.47	80.2391	1,230.47	73.5541	1,230.47	83.1258
1,274.41	85.9199	1,274.41	79.7849	1,274.41	85.5622	1,274.41	80.2238	1,274.41	73.4477	1,274.41	82.9232
1,319.82	85.9394	1,319.82	79.4122	1,319.82	85.584	1,319.82	79.9885	1,319.82	74.73	1,319.82	82.8905
1,366.7	85.7618	1,366.7	79.3178	1,366.7	86.4035	1,366.7	80.1101	1,366.7	76.2931	1,366.7	83.331
1,413.57	85.6482	1,413.57	77.886	1,413.57	86.6066	1,413.57	80.1576	1,413.57	75.5347	1,413.57	83.3588
1,463.38	85.5341	1,463.38	78.2321	1,463.38	85.6933	1,463.38	79.9573	1,463.38	75.9244	1,463.38	82.8198
1,516.11	84.5323	1,516.11	78.6764	1,516.11	84.7107	1,516.11	79.7329	1,516.11	73.6406	1,516.11	82.0346
1,568.85	82.7732	1,568.85	77.953	1,568.85	84.5355	1,568.85	78.9927	1,568.85	73.6118	1,568.85	81.4209
1,624.51	82.5266	1,624.51	77.9476	1,624.51	84.9475	1,624.51	79.3082	1,624.51	74.004	1,624.51	81.6924
1,681.64	82.0181	1,681.64	77.3597	1,681.64	85.8522	1,681.64	79.229	1,681.64	70.135	1,681.64	82.0854
1,741.7	82.2061	1,741.7	76.9007	1,741.7	85.8291	1,741.7	80.2841	1,741.7	73.0181	1,741.7	82.3363
1,803.22	82.1309	1,803.22	77.5935	1,803.22	85.2195	1,803.22	79.4502	1,803.22	72.3169	1,803.22	81.7864
1,866.21	81.9818	1,866.21	78.2746	1,866.21	83.8369	1,866.21	78.5434	1,866.21	70.1379	1,866.21	80.7844
1,932.13	80.5425	1,932.13	78.674	1,932.13	83.379	1,932.13	78.2946	1,932.13	70.5118	1,932.13	80.3125
1,999.51	79.7086	1,999.51	79.3151	1,999.51	83.9194	1,999.51	78.8475	1,999.51	71.2449	1,999.51	80.7211
2,069.82	81.3857	2,069.82	79.4587	2,069.82	84.6162	2,069.82	79.4805	2,069.82	70.6373	2,069.82	81.4445
2,143.07	81.9365	2,143.07	79.3775	2,143.07	84.8514	2,143.07	79.5905	2,143.07	72.588	2,143.07	81.6846
2,219.24	81.5981	2,219.24	78.7355	2,219.24	84.2219	2,219.24	79.1013	2,219.24	70.8228	2,219.24	81.1104
2,296.88	82.596	2,296.88	79.8502	2,296.88	84.3074	2,296.88	79.2578	2,296.88	71.8783	2,296.88	81.4273
2,378.91	81.9581	2,378.91	79.2859	2,378.91	85.979	2,378.91	80.6318	2,378.91	73.1264	2,378.91	82.5869
2,462.4	82.3008	2,462.4	79.4953	2,462.4	87.715	2,462.4	82.3122	2,462.4	73.8094	2,462.4	84.1032
2,548.83	83.0814	2,548.83	79.9483	2,548.83	87.6725	2,548.83	82.3597	2,548.83	73.7243	2,548.83	84.172
2,639.65	84.0224	2,639.65	80.128	2,639.65	86.3483	2,639.65	81.5386	2,639.65	74.0279	2,639.65	83.3219
2,731.93	83.6394	2,731.93	79.6728	2,731.93	85.945	2,731.93	81.3567	2,731.93	72.8149	2,731.93	82.9662
2,828.61	83.5734	2,828.61	79.7182	2,828.61	86.7154	2,828.61	81.8192	2,828.61	72.8504	2,828.61	83.5055
2,928.22	84.0083	2,928.22	79.6533	2,928.22	87.3555	2,928.22	82.4346	2,928.22	73.4306	2,928.22	84.0833
3,030.76	84.1681	3,030.76	80.0329	3,030.76	87.3787	3,030.76	82.4864	3,030.76	72.958	3,030.76	84.1405
3,137.7	83.7303	3,137.7	79.8902	3,137.7	87.2357	3,137.7	82.3978	3,137.7	73.2058	3,137.7	83.9823
3,249.02	83.5051	3,249.02	80.4718	3,249.02	86.7951	3,249.02	81.9201	3,249.02	73.2334	3,249.02	83.6119
3,363.28	83.6336	3,363.28	80.0189	3,363.28	86.6886	3,363.28	81.7613	3,363.28	72.8632	3,363.28	83.4977
3,481.93	83.5831	3,481.93	80.2058	3,481.93	86.5771	3,481.93	81.9248	3,481.93	72.8203	3,481.93	83.4823
3,604.98	83.9052	3,604.98	79.9642	3,604.98	87.2017	3,604.98	82.6465	3,604.98	73.6876	3,604.98	84.0584
3,732.42	83.9666	3,732.42	80.3777	3,732.42	87.7533	3,732.42	83.0439	3,732.42	73.4992	3,732.42	84.5016
3,864.26	85.3866	3,864.26	80.1682	3,864.26	86.75	3,864.26	81.8185	3,864.26	72.4203	3,864.26	83.7975
4,000.49	84.6633	4,000.49	79.8398	4,000.49	87.0495	4,000.49	81.8779	4,000.49	72.4849	4,000.49	83.8503
4,141.11	84.5129	4,141.11	80.279	4,141.11	87.2538	4,141.11	82.442	4,141.11	72.4037	4,141.11	84.1072
4,287.6	84.3856	4,287.6	79.5091	4,287.6	87.0362	4,287.6	82.1646	4,287.6	72.8614	4,287.6	83.8665
4,438.48	84.3349	4,438.48	80.0004	4,438.48	86.7924	4,438.48	82.1125	4,438.48	71.7613	4,438.48	83.7249
4,595.21	83.8355	4,595.21	79.0744	4,595.21	86.1152	4,595.21	81.5081	4,595.21	71.9681	4,595.21	83.0864
4,756.35	83.8094	4,756.35	79.1729	4,756.35	87.0385	4,756.35	82.1238	4,756.35	71.8986	4,756.35	83.7643
4,924.8	84.463	4,924.8	78.923	4,924.8	86.4802	4,924.8	82.3088	4,924.8	72.66	4,924.8	83.5897
5,097.66	84.4921	5,097.66	79.207	5,097.66	86.4844	5,097.66	81.7524	5,097.66	71.6674	5,097.66	83.4474
5,277.83	84.6722	5,277.83	79.0349	5,277.83	86.3082	5,277.83	82.1833	5,277.83	71.0293	5,277.83	83.4867
5,463.87	85.269	5,463.87	78.7861	5,463.87	86.2118	5,463.87	81.7193	5,463.87	71.4885	5,463.87	83.4015
5,657.23	85.0368	5,657.23	78.9966	5,657.23	86.0233	5,657.23	81.6684	5,657.23	70.4703	5,657.23	83.2527
5,856.45	84.3235	5,856.45	78.9675	5,856.45	85.6956	5,856.45	80.9497	5,856.45	70.3858	5,856.45	82.7732
6,062.99	84.7144	6,062.99	78.5626	6,062.99	85.9509	6,062.99	81.3123	6,062.99	69.9737	6,062.99	83.0451
6,276.86	84.2314	6,276.86	78.8827	6,276.86	85.5813	6,276.86	80.7346	6,276.86	69.7847	6,276.86	82.6357
6,498.05	84.5824	6,498.05	79.1584	6,498.05	85.8742	6,498.05	81.1357	6,498.05	69.5669	6,498.05	82.9616
6,726.56	84.4003	6,726.56	78.9753	6,726.56	85.8969	6,726.56	80.8616	6,726.56	69.0998	6,726.56	82.8646
6,963.87	84.6059	6,963.87	79.3451	6,963.87	86.0869	6,963.87	80.8521	6,963.87	68.5826	6,963.87	83.0152
7,209.96	84.6164	7,209.96	79.5102	7,209.96	86.44	7,209.96	81.4114	7,209.96	70.0359	7,209.96	83.3589
7,464.84	85.2566	7,464.84	79.4562	7,464.84	85.9883	7,464.84	80.7519	7,464.84	68.4765	7,464.84	83.0606
7,727.05	85.448	7,727.05	79.5454	7,727.05	86.7367	7,727.05	80.9115	7,727.05	68.46	7,727.05	83.5429
7,999.51	85.141	7,999.51	79.3595	7,999.51	86.1448	7,999.51	80.5141	7,999.51	68.3499	7,999.51	83.0653
8,282.23	85.1234	8,282.23	79.3148	8,282.23	86.3242	8,282.23	80.6336	8,282.23	68.2895	8,282.23	83.1841
8,573.73	84.7788	8,573.73	79.2336	8,573.73	86.1137	8,573.73	80.0288	8,573.73	68.0977	8,573.73	82.8743
8,876.95	84.5974	8,876.95	79.0973	8,876.95	86.0477	8,876.95	80.0107	8,876.95	68.215	8,876.95	82.7948
9,188.96	84.6246	9,188.96	79.3007	9,188.96	85.4759	9,188.96	79.4604	9,188.96	67.72	9,188.96	82.3789
9,514.16	84.7187	9,514.16	79.3227	9,514.16	85.5351	9,514.16	79.4677	9,514.16	67.3639	9,514.16	82.4311
9,849.61	84.5881	9,849.61	79.5313	9,849.61	85.2914	9,849.61	79.5192	9,849.61	67.4321	9,849.61	82.2958
10,196.8	84.9193	10,196.8	79.5868	10,196.8	85.4051	10,196.8	79.8123	10,196.8	67.8534	10,196.8	82.4873
10,555.7	84.4085	10,555.7	79.6165	10,555.7	85.1823	10,555.7	80.1264	10,555.7	68.1888	10,555.7	82.3439
10,927.7	84.0465	10,927.7	79.7439	10,927.7	84.9549	10,927.7	80.4183	10,927.7	68.4453	10,927.7	82.2425
11,313	84.1373	11,313	79.7983	11,313	84.8158	11,313	80.4327	11,313	68.1697	11,313	82.1953
11,712.9	84.288	11,712.9	79.7207	11,712.9	84.765	11,712.9	80.2507	11,712.9	67.6626	11,712.9	82.1448
12,126	84.574	12,126	79.7508	12,126	84.8695	12,126	80.1136	12,126	67.3705	12,126	82.2194
12,553.7	84.2069	12,553.7	79.736	12,553.7	84.8452	12,553.7	79.9861	12,553.7	66.9895	12,553.7	82.1039
12,996.1	84.4897	12,996.1	79.65	12,996.1	84.9986	12,996.1	80.0166	12,996.1	66.4844	12,996.1	82.2355
13,454.6	84.3012	13,454.6	79.3405	13,454.6	85.1326	13,454.6	80.074	13,454.6	66.3554	13,454.6	82.2628
13,929.2	84.4406	13,929.2	79.1436	13,929.2	85.4883	13,929.2	80.1793	13,929.2	65.7628	13,929.2	82.488
14,419.9	84.4324	14,419.9	79.0161	14,419.9	85.7134	14,419.9	80.2821	14,419.9	65.0482	14,419.9	82.6237
14,928.2	84.4811	14,928.2	79.0826	14,928.2	85.8973	14,928.2	80.1728	14,928.2	64.3519	14,928.2	82.7122
15,455.6	84.7699	15,455.6	79.0005	15,455.6	85.9685	15,455.6	80.0379	15,455.6	63.6805	15,455.6	82.7703
16,000.5	84.9396	16,000.5	78.831	16,000.5	86.048	16,000.5	79.8146	16,000.5	62.8233	16,000.5	82.7932
16,564.5	85.1017	16,564.5	78.245	16,564.5	86.1368	16,564.5	79.7095	16,564.5	61.9274	16,564.5	82.8289
17,148.9	85.0766	17,148.9	77.6701	17,148.9	86.2147	17,148.9	79.2787	17,148.9	60.1708	17,148.9	82.7691
17,752.4	85.3525	17,752.4	77.1466	17,752.4	85.8867	17,752.4	79.0217	17,752.4	60.3009	17,752.4	82.5721
18,379.4	85.485	18,379.4	76.4946	18,379.4	85.4186	18,379.4	78.6425	18,379.4	60.0073	18,379.4	82.2518
19,026.9	85.1768	19,026.9	75.4722	19,026.9	85.0068	19,026.9	78.1107	19,026.9	60.3843	19,026.9	81.8288
19,697.8	84.8731	19,697.8	74.4392	19,697.8	84.705	19,697.8	77.4403	19,697.8	60.8875	19,697.8	81.4509
19,999.5	84.7978	19,999.5	73.7099	19,999.5	84.7963	19,999.5	77.2393	19,999.5	61.6525	19,999.5	81.4399
