* Freq[Hz]      Mag   Phase[Deg]
5.00000    -17.106     0.000
5.07273    -16.800     0.000
5.14651    -16.493     0.000
5.22137    -16.186     0.000
5.29732    -15.877     0.000
5.37437    -15.567     0.000
5.45254    -15.256     0.000
5.53185    -14.944     0.000
5.61231    -14.631     0.000
5.69394    -14.317     0.000
5.77676    -14.001     0.000
5.86079    -13.685     0.000
5.94604    -13.368     0.000
6.03252    -13.049     0.000
6.12027    -12.729     0.000
6.20929    -12.408     0.000
6.29961    -12.086     0.000
6.39124    -11.763     0.000
6.48420    -11.438     0.000
6.57851    -11.113     0.000
6.67420    -10.785     0.000
6.77128    -10.457     0.000
6.86977    -10.128     0.000
6.96969     -9.797     0.000
7.07107     -9.465     0.000
7.17392     -9.132     0.000
7.27827     -8.798     0.000
7.38413     -8.462     0.000
7.49154     -8.124     0.000
7.60050     -7.786     0.000
7.71105     -7.446     0.000
7.82321     -7.105     0.000
7.93701     -6.763     0.000
8.05245     -6.419     0.000
8.16958     -6.073     0.000
8.28841     -5.727     0.000
8.40896     -5.378     0.000
8.53128     -5.029     0.000
8.65537     -4.678     0.000
8.78126     -4.326     0.000
8.90899     -3.972     0.000
9.03857     -3.617     0.000
9.17004     -3.260     0.000
9.30342     -2.902     0.000
9.43874     -2.542     0.000
9.57603     -2.181     0.000
9.71532     -1.819     0.000
9.85663     -1.455     0.000
10.0000     -1.089     0.000
10.1455     -0.722     0.000
10.2930     -0.353     0.000
10.4427      0.017     0.000
10.5946      0.389     0.000
10.7487      0.762     0.000
10.9051      1.136     0.000
11.0637      1.513     0.000
11.2246      1.891     0.000
11.3879      2.270     0.000
11.5535      2.651     0.000
11.7216      3.034     0.000
11.8921      3.418     0.000
12.0650      3.804     0.000
12.2405      4.192     0.000
12.4186      4.581     0.000
12.5992      4.972     0.000
12.7825      5.364     0.000
12.9684      5.758     0.000
13.1570      6.154     0.000
13.3484      6.552     0.000
13.5426      6.951     0.000
13.7395      7.352     0.000
13.9394      7.755     0.000
14.1421      8.159     0.000
14.3478      8.566     0.000
14.5565      8.974     0.000
14.7683      9.384     0.000
14.9831      9.796     0.000
15.2010     10.209     0.000
15.4221     10.625     0.000
15.6464     11.042     0.000
15.8740     11.462     0.000
16.1049     11.883     0.000
16.3392     12.307     0.000
16.5768     12.732     0.000
16.8179     13.160     0.000
17.0626     13.590     0.000
17.3107     14.022     0.000
17.5625     14.456     0.000
17.8180     14.892     0.000
18.0771     15.331     0.000
18.3401     15.772     0.000
18.6068     16.215     0.000
18.8775     16.660     0.000
19.1521     17.108     0.000
19.4306     17.559     0.000
19.7133     18.012     0.000
20.0000     18.468     0.000
20.2909     18.926     0.000
20.5860     17.656     0.000
20.8855     17.200     0.000
21.1893     19.092     0.000
21.4975     20.898     0.000
21.8102     21.630     0.000
22.1274     21.054     0.000
22.4492     19.840     0.000
22.7758     19.870     0.000
23.1071     22.001     0.000
23.4432     24.467     0.000
23.7841     25.950     0.000
24.1301     26.378     0.000
24.4811     25.568     0.000
24.8372     23.752     0.000
25.1984     21.450     0.000
25.5649     20.780     0.000
25.9368     22.198     0.000
26.3141     23.733     0.000
26.6968     24.308     0.000
27.0851     24.013     0.000
27.4791     23.506     0.000
27.8788     23.818     0.000
28.2843     25.592     0.000
28.6957     27.835     0.000
29.1131     29.880     0.000
29.5365     31.565     0.000
29.9661     33.021     0.000
30.4020     34.359     0.000
30.8442     35.579     0.000
31.2929     36.582     0.000
31.7480     37.333     0.000
32.2098     37.974     0.000
32.6783     38.762     0.000
33.1536     39.785     0.000
33.6359     40.809     0.000
34.1251     41.611     0.000
34.6215     42.294     0.000
35.1250     43.151     0.000
35.6359     44.245     0.000
36.1543     45.249     0.000
36.6802     45.908     0.000
37.2137     46.446     0.000
37.7550     47.464     0.000
38.3041     49.073     0.000
38.8613     50.630     0.000
39.4265     51.596     0.000
40.0000     51.983     0.000
40.5818     52.311     0.000
41.1721     53.140     0.000
41.7710     54.346     0.000
42.3785     55.458     0.000
42.9949     56.366     0.000
43.6203     57.242     0.000
44.2548     58.148     0.000
44.8985     59.018     0.000
45.5515     59.869     0.000
46.2141     60.758     0.000
46.8863     61.639     0.000
47.5683     62.443     0.000
48.2602     63.209     0.000
48.9621     64.004     0.000
49.6743     64.836     0.000
50.3968     65.671     0.000
51.1299     66.487     0.000
51.8736     67.268     0.000
52.6281     67.998     0.000
53.3936     68.683     0.000
54.1702     69.348     0.000
54.9581     69.996     0.000
55.7575     70.552     0.000
56.5685     70.953     0.000
57.3914     71.279     0.000
58.2261     71.661     0.000
59.0730     72.072     0.000
59.9323     72.444     0.000
60.8040     72.779     0.000
61.6884     73.050     0.000
62.5857     73.229     0.000
63.4960     73.335     0.000
64.4196     73.376     0.000
65.3566     73.357     0.000
66.3073     73.331     0.000
67.2717     73.341     0.000
68.2502     73.362     0.000
69.2429     73.348     0.000
70.2501     73.346     0.000
71.2719     73.391     0.000
72.3086     73.489     0.000
73.3603     73.582     0.000
74.4274     73.600     0.000
75.5099     73.588     0.000
76.6083     73.577     0.000
77.7226     73.562     0.000
78.8531     73.526     0.000
80.0000     73.420     0.000
81.1636     73.196     0.000
82.3442     73.057     0.000
83.5419     72.970     0.000
84.7570     72.884     0.000
85.9899     72.804     0.000
87.2406     72.737     0.000
88.5096     72.703     0.000
89.7970     72.697     0.000
91.1031     72.764     0.000
92.4282     72.711     0.000
93.7726     72.871     0.000
95.1366     72.825     0.000
96.5204     72.687     0.000
97.9243     72.720     0.000
99.3486     72.638     0.000
100.794     72.648     0.000
102.260     72.545     0.000
103.747     72.520     0.000
105.256     72.568     0.000
106.787     72.520     0.000
108.340     72.368     0.000
109.916     72.481     0.000
111.515     72.549     0.000
113.137     72.372     0.000
114.783     72.380     0.000
116.452     72.331     0.000
118.146     72.306     0.000
119.865     72.471     0.000
121.608     72.462     0.000
123.377     72.552     0.000
125.171     72.590     0.000
126.992     72.735     0.000
128.839     72.671     0.000
130.713     72.371     0.000
132.615     72.415     0.000
134.543     72.453     0.000
136.500     72.322     0.000
138.486     72.429     0.000
140.500     72.516     0.000
142.544     72.680     0.000
144.617     72.756     0.000
146.721     72.628     0.000
148.855     72.473     0.000
151.020     72.501     0.000
153.217     72.569     0.000
155.445     72.719     0.000
157.706     72.800     0.000
160.000     72.706     0.000
162.327     72.528     0.000
164.688     72.635     0.000
167.084     72.808     0.000
169.514     72.811     0.000
171.980     72.858     0.000
174.481     72.865     0.000
177.019     72.788     0.000
179.594     72.910     0.000
182.206     72.739     0.000
184.856     72.596     0.000
187.545     72.657     0.000
190.273     72.541     0.000
193.041     72.581     0.000
195.849     72.619     0.000
198.697     72.552     0.000
201.587     72.706     0.000
204.520     72.586     0.000
207.494     72.483     0.000
210.512     72.503     0.000
213.574     72.541     0.000
216.681     72.505     0.000
219.833     72.412     0.000
223.030     72.516     0.000
226.274     72.406     0.000
229.565     72.382     0.000
232.905     72.324     0.000
236.292     72.355     0.000
239.729     72.293     0.000
243.216     72.298     0.000
246.754     72.295     0.000
250.343     72.257     0.000
253.984     72.266     0.000
257.678     72.369     0.000
261.426     72.330     0.000
265.229     72.147     0.000
269.087     72.013     0.000
273.001     72.031     0.000
276.972     71.897     0.000
281.000     71.813     0.000
285.088     71.832     0.000
289.234     71.787     0.000
293.441     71.664     0.000
297.709     71.773     0.000
302.040     71.633     0.000
306.433     71.620     0.000
310.890     71.574     0.000
315.412     71.506     0.000
320.000     71.497     0.000
324.655     71.447     0.000
329.377     71.482     0.000
334.168     71.444     0.000
339.028     71.490     0.000
343.959     71.545     0.000
348.962     71.355     0.000
354.038     71.310     0.000
359.188     71.161     0.000
364.412     71.074     0.000
369.713     71.050     0.000
375.090     70.946     0.000
380.546     70.909     0.000
386.081     70.826     0.000
391.697     70.816     0.000
397.394     70.692     0.000
403.175     70.675     0.000
409.039     70.710     0.000
414.989     70.689     0.000
421.025     70.692     0.000
427.149     70.714     0.000
433.362     70.749     0.000
439.665     70.818     0.000
446.060     70.877     0.000
452.548     70.928     0.000
459.131     71.002     0.000
465.809     71.068     0.000
472.584     71.137     0.000
479.458     71.225     0.000
486.432     71.291     0.000
493.507     71.328     0.000
500.686     71.374     0.000
507.968     71.452     0.000
515.357     71.472     0.000
522.853     71.466     0.000
530.458     71.465     0.000
538.174     71.445     0.000
546.002     71.412     0.000
553.943     71.338     0.000
562.001     71.295     0.000
570.175     71.209     0.000
578.469     71.092     0.000
586.883     70.966     0.000
595.419     70.850     0.000
604.080     70.728     0.000
612.866     70.575     0.000
621.780     70.436     0.000
630.824     70.293     0.000
640.000     70.177     0.000
649.309     70.066     0.000
658.753     69.968     0.000
668.335     69.909     0.000
678.056     69.851     0.000
687.919     69.821     0.000
697.925     69.836     0.000
708.077     69.855     0.000
718.376     69.885     0.000
728.825     69.952     0.000
739.426     70.040     0.000
750.181     70.123     0.000
761.093     70.200     0.000
772.163     70.270     0.000
783.394     70.339     0.000
794.789     70.381     0.000
806.349     70.428     0.000
818.078     70.449     0.000
829.977     70.466     0.000
842.050     70.447     0.000
854.298     70.411     0.000
866.724     70.355     0.000
879.330     70.266     0.000
892.120     70.167     0.000
905.097     70.034     0.000
918.262     69.910     0.000
931.618     69.765     0.000
945.169     69.613     0.000
958.917     69.451     0.000
972.864     69.307     0.000
987.015     69.149     0.000
1001.37     69.009     0.000
1015.94     68.898     0.000
1030.71     68.810     0.000
1045.71     68.751     0.000
1060.92     68.725     0.000
1076.35     68.725     0.000
1092.00     68.743     0.000
1107.89     68.785     0.000
1124.00     68.823     0.000
1140.35     68.859     0.000
1156.94     68.880     0.000
1173.77     68.893     0.000
1190.84     68.912     0.000
1208.16     68.881     0.000
1225.73     68.824     0.000
1243.56     68.775     0.000
1261.65     68.705     0.000
1280.00     68.643     0.000
1298.62     68.585     0.000
1317.51     68.547     0.000
1336.67     68.521     0.000
1356.11     68.508     0.000
1375.84     68.534     0.000
1395.85     68.579     0.000
1416.15     68.640     0.000
1436.75     68.702     0.000
1457.65     68.758     0.000
1478.85     68.803     0.000
1500.36     68.829     0.000
1522.19     68.817     0.000
1544.33     68.769     0.000
1566.79     68.685     0.000
1589.58     68.574     0.000
1612.70     68.421     0.000
1636.16     68.283     0.000
1659.95     68.154     0.000
1684.10     68.072     0.000
1708.60     68.048     0.000
1733.45     68.091     0.000
1758.66     68.196     0.000
1784.24     68.313     0.000
1810.19     68.429     0.000
1836.52     68.529     0.000
1863.24     68.584     0.000
1890.34     68.597     0.000
1917.83     68.572     0.000
1945.73     68.510     0.000
1974.03     68.437     0.000
2002.74     68.352     0.000
2031.87     68.277     0.000
2061.43     68.213     0.000
2091.41     68.148     0.000
2121.83     68.092     0.000
2152.69     68.022     0.000
2184.01     67.932     0.000
2215.77     67.848     0.000
2248.00     67.761     0.000
2280.70     67.673     0.000
2313.87     67.587     0.000
2347.53     67.507     0.000
2381.68     67.440     0.000
2416.32     67.404     0.000
2451.46     67.393     0.000
2487.12     67.441     0.000
2523.30     67.527     0.000
2560.00     67.672     0.000
2597.24     67.826     0.000
2635.01     67.973     0.000
2673.34     68.040     0.000
2712.23     68.070     0.000
2751.68     68.020     0.000
2791.70     67.937     0.000
2832.31     67.870     0.000
2873.50     67.811     0.000
2915.30     67.783     0.000
2957.70     67.784     0.000
3000.72     67.797     0.000
3044.37     67.862     0.000
3088.65     67.978     0.000
3133.58     68.161     0.000
3179.16     68.339     0.000
3225.40     68.472     0.000
3272.31     68.555     0.000
3319.91     68.634     0.000
3368.20     68.758     0.000
3417.19     68.908     0.000
3466.89     68.987     0.000
3517.32     68.935     0.000
3568.48     68.771     0.000
3620.39     68.606     0.000
3673.05     68.529     0.000
3726.47     68.506     0.000
3780.67     68.451     0.000
3835.67     68.342     0.000
3891.46     68.236     0.000
3948.06     68.214     0.000
4005.49     68.254     0.000
4063.75     68.264     0.000
4122.86     68.211     0.000
4182.82     68.165     0.000
4243.66     68.201     0.000
4305.39     68.258     0.000
4368.01     68.200     0.000
4431.55     68.049     0.000
4496.01     67.998     0.000
4561.40     68.188     0.000
4627.75     68.367     0.000
4695.06     68.334     0.000
4763.35     68.204     0.000
4832.64     68.222     0.000
4902.93     68.375     0.000
4974.24     68.480     0.000
5046.60     68.504     0.000
5120.00     68.480     0.000
5194.47     68.418     0.000
5270.03     68.287     0.000
5346.68     68.007     0.000
5424.45     67.726     0.000
5503.35     67.637     0.000
5583.40     67.688     0.000
5664.61     67.755     0.000
5747.01     67.978     0.000
5830.60     68.314     0.000
5915.41     68.532     0.000
6001.45     68.569     0.000
6088.74     68.524     0.000
6177.30     68.359     0.000
6267.15     68.021     0.000
6358.31     67.738     0.000
6450.80     67.721     0.000
6544.62     67.791     0.000
6639.82     67.955     0.000
6736.40     68.253     0.000
6834.38     68.406     0.000
6933.79     68.417     0.000
7034.64     68.525     0.000
7136.96     68.549     0.000
7240.77     68.490     0.000
7346.09     68.560     0.000
7452.94     68.526     0.000
7561.35     68.422     0.000
7671.33     68.485     0.000
7782.91     68.496     0.000
7896.12     68.591     0.000
8010.97     68.759     0.000
8127.49     68.827     0.000
8245.71     68.934     0.000
8365.65     68.849     0.000
8487.33     68.618     0.000
8610.78     68.476     0.000
8736.03     68.323     0.000
8863.09     68.440     0.000
8992.01     68.584     0.000
9122.80     68.668     0.000
9255.50     68.739     0.000
9390.12     68.618     0.000
9526.70     68.511     0.000
9665.27     68.251     0.000
9805.86     68.125     0.000
9948.49     68.010     0.000
10093.2     68.173     0.000
10240.0     68.328     0.000
10388.9     68.409     0.000
10540.1     68.144     0.000
10693.4     67.613     0.000
10848.9     67.077     0.000
11006.7     67.041     0.000
11166.8     67.364     0.000
11329.2     67.743     0.000
11494.0     67.786     0.000
11661.2     67.612     0.000
11830.8     67.295     0.000
12002.9     67.133     0.000
12177.5     67.237     0.000
12354.6     67.564     0.000
12534.3     67.865     0.000
12716.6     67.695     0.000
12901.6     67.147     0.000
13089.2     66.817     0.000
13279.6     67.201     0.000
13472.8     67.774     0.000
13668.8     67.820     0.000
13867.6     67.431     0.000
14069.3     67.385     0.000
14273.9     67.863     0.000
14481.5     68.237     0.000
14692.2     68.140     0.000
14905.9     68.001     0.000
15122.7     68.131     0.000
15342.7     68.260     0.000
15565.8     68.532     0.000
15792.2     68.754     0.000
16021.9     68.341     0.000
16255.0     67.809     0.000
16491.4     68.210     0.000
16731.3     68.695     0.000
16974.7     68.574     0.000
17221.6     68.305     0.000
17472.1     68.227     0.000
17726.2     68.372     0.000
17984.0     68.563     0.000
18245.6     68.473     0.000
18511.0     68.165     0.000
18780.2     68.127     0.000
19053.4     68.478     0.000
19330.5     68.554     0.000
19611.7     68.399     0.000
19897.0     68.147     0.000
20186.4     68.172     0.000
20480.0     68.197     0.000
20777.9     68.222     0.000
21080.1     68.247     0.000
21386.7     68.273     0.000
21697.8     68.299     0.000
22013.4     68.325     0.000
22333.6     68.351     0.000
22658.4     68.377     0.000
22988.0     68.404     0.000
23322.4     68.431     0.000
23661.6     68.458     0.000
24005.8     68.485     0.000
24355.0     68.513     0.000
24709.2     68.540     0.000
25068.6     68.568     0.000
25433.2     68.597     0.000
25803.2     68.625     0.000
26178.5     68.654     0.000
26559.3     68.682     0.000
26945.6     68.711     0.000
27337.5     68.741     0.000
27735.2     68.770     0.000
28138.6     68.799     0.000
28547.9     68.829     0.000
28963.1     68.859     0.000
29384.4     68.889     0.000
29811.8     68.920     0.000
30245.4     68.951     0.000
30685.3     68.981     0.000
31131.7     69.013     0.000
31584.5     69.044     0.000
32043.9     69.075     0.000
32510.0     69.107     0.000
32982.8     69.138     0.000
33462.6     69.170     0.000
33949.3     69.203     0.000
34443.1     69.235     0.000
34944.1     69.267     0.000
35452.4     69.300     0.000
35968.0     69.333     0.000
36491.2     69.366     0.000
37022.0     69.400     0.000
37560.5     69.433     0.000
38106.8     69.467     0.000
38661.1     69.501     0.000
39223.4     69.535     0.000
39793.9     69.569     0.000
