"Early Reflections"											
"Floor Bounce"		"Ceiling Bounce"		"Front Wall Bounce"		"Side Wall Bounce"		"Rear Wall Bounce"		"Total Early Reflection"	
"Frequency [Hz]"	"Sound Pessure Level [dB]  / [2.83V 1m] "	"Frequency [Hz]"	"Sound Pessure Level [dB]  / [2.83V 1m] "	"Frequency [Hz]"	"Sound Pessure Level [dB]  / [2.83V 1m] "	"Frequency [Hz]"	"Sound Pessure Level [dB]  / [2.83V 1m] "	"Frequency [Hz]"	"Sound Pessure Level [dB]  / [2.83V 1m] "	"Frequency [Hz]"	"Sound Pessure Level [dB]  / [2.83V 1m] "
20.5078	41.4045	20.5078	45.7669	20.5078	41.7552	20.5078	45.7619	20.5078	50.8763	20.5078	45.8652
21.9727	49.7275	21.9727	50.4354	21.9727	49.6105	21.9727	50.5433	21.9727	53.796	21.9727	50.7717
23.4375	49.4555	23.4375	46.2177	23.4375	48.8288	23.4375	46.9255	23.4375	47.0976	23.4375	47.8126
24.9023	47.1329	24.9023	46.8721	24.9023	46.6263	24.9023	47.0086	24.9023	51.3809	24.9023	47.7181
26.3672	53.4673	26.3672	52.1763	26.3672	53.0453	26.3672	52.6149	26.3672	53.8385	26.3672	52.9473
27.832	53.4022	27.832	51.4633	27.832	52.8917	27.832	52.0248	27.832	52.6896	27.832	52.4688
29.2969	56.1256	29.2969	55.1755	29.2969	55.7843	29.2969	55.5204	29.2969	56.6483	29.2969	55.7715
30.7617	59.4559	30.7617	58.2651	30.7617	59.095	30.7617	58.7273	30.7617	59.1011	30.7617	58.9126
32.2266	59.9677	32.2266	58.5967	32.2266	59.5707	32.2266	59.1127	32.2266	59.1538	32.2266	59.2965
33.6914	60.7127	33.6914	59.4788	33.6914	60.3572	33.6914	59.8856	33.6914	59.87	33.6914	60.0741
35.1562	62.6599	35.1562	61.6858	35.1562	62.3747	35.1562	62.0372	35.1562	62.0973	35.1562	62.1748
36.6211	64.38	36.6211	63.3936	36.6211	64.0767	36.6211	63.7946	36.6211	63.8601	36.6211	63.9073
38.0859	65.6047	38.0859	64.6303	38.0859	65.2978	38.0859	65.0378	38.0859	65.0746	38.0859	65.138
39.5508	66.3604	39.5508	65.3654	39.5508	66.0535	39.5508	65.7812	39.5508	65.6941	39.5508	65.8717
41.0156	66.7494	41.0156	65.6835	41.0156	66.4324	41.0156	66.1057	41.0156	65.8407	41.0156	66.2
42.4805	67.7772	42.4805	66.8897	42.4805	67.5209	42.4805	67.2207	42.4805	66.9227	42.4805	67.3021
43.9453	69.2819	43.9453	68.5288	43.9453	69.0524	43.9453	68.8413	43.9453	68.6776	43.9453	68.8993
45.4102	70.532	45.4102	69.7806	45.4102	70.2755	45.4102	70.1401	45.4102	70.1253	45.4102	70.1827
46.875	71.0353	46.875	70.242	46.875	70.7609	46.875	70.6268	46.875	70.6043	46.875	70.6676
48.3398	71.2865	48.3398	70.4672	48.3398	71.0117	48.3398	70.8474	48.3398	70.6947	48.3398	70.8863
51.2695	72.6733	51.2695	71.939	51.2695	72.4638	51.2695	72.2301	51.2695	71.8575	51.2695	72.2747
52.7344	73.6641	52.7344	73.0046	52.7344	73.455	52.7344	73.3029	52.7344	73.0919	52.7344	73.3309
54.1992	74.4418	54.1992	73.8295	54.1992	74.2221	54.1992	74.1514	54.1992	74.0997	54.1992	74.1635
55.6641	74.8833	55.6641	74.2746	55.6641	74.6509	55.6641	74.617	55.6641	74.6368	55.6641	74.6221
58.5938	75.0425	58.5938	74.4195	58.5938	74.8205	58.5938	74.7444	58.5938	74.6438	58.5938	74.7531
60.0586	75.46	60.0586	74.8387	60.0586	75.2525	60.0586	75.1331	60.0586	74.8941	60.0586	75.1452
62.9883	76.7936	62.9883	76.2079	62.9883	76.6054	62.9883	76.4862	62.9883	76.2005	62.9883	76.4925
64.4531	77.0797	64.4531	76.5383	64.4531	76.8817	64.4531	76.841	64.4531	76.727	64.4531	76.8336
67.3828	77.1089	67.3828	76.5924	67.3828	76.8945	67.3828	76.9196	67.3828	76.9513	67.3828	76.9025
68.8477	77.0051	68.8477	76.4584	68.8477	76.7942	68.8477	76.7796	68.8477	76.7255	68.8477	76.7683
71.7773	77.6041	71.7773	77.0318	71.7773	77.4061	71.7773	77.3333	71.7773	77.1371	71.7773	77.3296
74.707	77.9927	74.707	77.4924	74.707	77.8143	74.707	77.7751	74.707	77.589	74.707	77.7588
77.6367	78.1264	77.6367	77.6584	77.6367	77.94	77.6367	77.954	77.6367	77.8372	77.6367	77.9241
79.1016	78.3053	79.1016	77.8289	79.1016	78.1151	79.1016	78.1301	79.1016	78.0373	79.1016	78.1024
82.0312	78.5192	82.0312	78.0096	82.0312	78.3276	82.0312	78.3232	82.0312	78.2501	82.0312	78.3042
84.9609	78.353	84.9609	77.8391	84.9609	78.1352	84.9609	78.1863	84.9609	78.178	84.9609	78.1527
87.8906	78.6347	87.8906	78.1669	87.8906	78.4227	87.8906	78.4873	87.8906	78.4448	87.8906	78.4466
90.8203	78.9614	90.8203	78.4524	90.8203	78.7829	90.8203	78.7448	90.8203	78.5793	90.8203	78.7293
95.2148	79.0014	95.2148	78.5776	95.2148	78.832	95.2148	78.8695	95.2148	78.821	95.2148	78.8366
98.1445	79.268	98.1445	78.7677	98.1445	79.074	98.1445	79.071	98.1445	78.9157	98.1445	79.0436
101.074	79.1908	101.074	78.7313	101.074	78.9789	101.074	79.0585	101.074	79.0271	101.074	79.0126
105.469	79.7607	105.469	79.3235	105.469	79.5924	105.469	79.5904	105.469	79.4681	105.469	79.5671
108.398	79.6953	108.398	79.2444	108.398	79.5112	108.398	79.508	108.398	79.4037	108.398	79.4895
112.793	80.1166	112.793	79.5848	112.793	79.946	112.793	79.8307	112.793	79.5906	112.793	79.8417
117.188	80.3958	117.188	79.7601	117.188	80.2423	117.188	79.9957	117.188	79.3637	117.188	80.018
120.117	80.644	120.117	80.0834	120.117	80.5042	120.117	80.2891	120.117	79.6365	120.117	80.298
124.512	80.3799	124.512	79.8996	124.512	80.2273	124.512	80.2137	124.512	79.926	124.512	80.1696
128.906	80.134	128.906	79.6945	128.906	79.9627	128.906	80.0511	128.906	79.9867	128.906	79.9899
133.301	80.2302	133.301	79.772	133.301	80.0417	133.301	80.1027	133.301	80.1106	133.301	80.0653
139.16	80.4069	139.16	79.8488	139.16	80.1971	139.16	80.1635	139.16	80.1373	139.16	80.1634
143.555	80.6655	143.555	80.0703	143.555	80.4737	143.555	80.3472	143.555	80.1675	143.555	80.3685
147.949	80.84	147.949	80.1607	147.949	80.6834	147.949	80.4269	147.949	79.9815	147.949	80.4692
153.809	80.9661	153.809	80.3815	153.809	80.8274	153.809	80.6224	153.809	80.0802	153.809	80.6343
159.668	81.0439	159.668	80.4472	159.668	80.8792	159.668	80.7135	159.668	80.2068	159.668	80.7136
165.527	81.1056	165.527	80.5071	165.527	80.8964	165.527	80.8231	165.527	80.4056	165.527	80.7955
171.387	81.0538	171.387	80.4626	171.387	80.8566	171.387	80.7753	171.387	80.4078	171.387	80.7551
177.246	80.8978	177.246	80.2717	177.246	80.6651	177.246	80.6279	177.246	80.4201	177.246	80.6072
183.105	80.7896	183.105	80.1919	183.105	80.612	183.105	80.562	183.105	80.3179	183.105	80.5341
188.965	80.7736	188.965	80.2784	188.965	80.6855	188.965	80.528	188.965	80.1638	188.965	80.532
196.289	80.8848	196.289	80.2593	196.289	80.7341	196.289	80.5187	196.289	80.0549	196.289	80.5424
203.613	80.7995	203.613	80.1613	203.613	80.6354	203.613	80.4239	203.613	80.0175	203.613	80.4533
210.938	80.6654	210.938	80.0527	210.938	80.547	210.938	80.3475	210.938	79.9224	210.938	80.3609
218.262	80.4177	218.262	79.8431	218.262	80.3342	218.262	80.0963	218.262	79.7118	218.262	80.1297
225.586	80.3153	225.586	79.554	225.586	80.1174	225.586	79.949	225.586	79.731	225.586	79.9712
232.91	80.4227	232.91	79.7089	232.91	80.2661	232.91	80.007	232.91	79.5302	232.91	80.0437
241.699	80.1141	241.699	79.3855	241.699	79.9175	241.699	79.7215	241.699	79.2747	241.699	79.7366
250.488	80.037	250.488	78.8385	250.488	79.6947	250.488	79.4748	250.488	79.1211	250.488	79.4973
259.277	80.0315	259.277	78.8713	259.277	79.7403	259.277	79.5339	259.277	79.1951	259.277	79.5431
268.066	79.6686	268.066	78.8767	268.066	79.5414	268.066	79.3147	268.066	79.1993	268.066	79.3585
276.855	78.9492	276.855	78.7738	276.855	78.9554	276.855	79.1197	276.855	79.5724	276.855	79.0734
287.109	77.6044	287.109	76.8881	287.109	77.7023	287.109	77.1373	287.109	78.5475	287.109	77.5049
297.363	79.2755	297.363	77.9559	297.363	79.2263	297.363	78.0477	297.363	77.5978	297.363	78.4926
307.617	79.1671	307.617	77.9065	307.617	79.105	307.617	78.2014	307.617	77.4486	307.617	78.4752
319.336	79.0933	319.336	77.8471	319.336	79.0018	319.336	77.908	319.336	77.1343	319.336	78.2937
329.59	78.6814	329.59	77.4735	329.59	78.6194	329.59	77.754	329.59	76.9187	329.59	78.0047
341.309	78.6944	341.309	77.3675	341.309	78.6112	341.309	77.4911	341.309	76.6837	341.309	77.8783
353.027	78.374	353.027	77.1273	353.027	78.3832	353.027	77.5784	353.027	76.4975	353.027	77.7538
366.211	78.0938	366.211	76.9182	366.211	78.1099	366.211	77.336	366.211	76.2719	366.211	77.5015
379.395	77.7886	379.395	76.8988	379.395	77.872	379.395	77.2639	379.395	76.3721	379.395	77.3693
392.578	76.8814	392.578	75.9933	392.578	76.7636	392.578	76.4379	392.578	76.1086	392.578	76.4971
405.762	76.314	405.762	74.6483	405.762	76.2122	405.762	74.898	405.762	76.6308	405.762	75.6525
420.41	79.659	420.41	76.8933	420.41	79.6318	420.41	76.8822	420.41	76.8678	420.41	78.1567
435.059	79.1002	435.059	76.858	435.059	79.1072	435.059	77.1419	435.059	76.1326	435.059	77.8922
451.172	79.6058	451.172	76.6218	451.172	79.485	451.172	77.2254	451.172	75.7425	451.172	78.0877
465.82	79.7441	465.82	77.2428	465.82	79.8912	465.82	77.8579	465.82	76.12	465.82	78.5406
483.398	79.6662	483.398	77.2949	483.398	79.786	483.398	77.8089	483.398	75.9444	483.398	78.4671
499.512	79.595	499.512	77.2897	499.512	79.6783	499.512	77.6036	499.512	75.5501	499.512	78.3242
517.09	79.4743	517.09	77.3865	517.09	79.6167	517.09	77.688	517.09	75.4676	517.09	78.315
536.133	78.5595	536.133	76.2754	536.133	78.7455	536.133	77.1361	536.133	74.6538	536.133	77.5285
555.176	78.9898	555.176	76.3368	555.176	79.1389	555.176	77.507	555.176	74.9671	555.176	77.8869
574.219	79.1284	574.219	76.5794	574.219	79.1794	574.219	77.4394	574.219	74.9748	574.219	77.9193
594.727	78.5284	594.727	75.7626	594.727	78.725	594.727	77.2524	594.727	74.5427	594.727	77.5096
615.234	78.4237	615.234	75.6509	615.234	78.5822	615.234	77.2554	615.234	74.272	615.234	77.4209
637.207	78.3485	637.207	75.4338	637.207	78.3285	637.207	77.1248	637.207	74.6512	637.207	77.2794
659.18	77.4696	659.18	74.996	659.18	77.5673	659.18	76.3652	659.18	73.6634	659.18	76.513
682.617	77.4277	682.617	74.2843	682.617	77.4769	682.617	76.4004	682.617	73.7433	682.617	76.4403
707.52	77.4537	707.52	73.7299	707.52	77.1396	707.52	77.0288	707.52	75.1137	707.52	76.649
732.422	77.0429	732.422	74.1138	732.422	77.3102	732.422	76.8152	732.422	75.2618	732.422	76.5951
757.324	78.1439	757.324	74.3669	757.324	77.9161	757.324	76.6489	757.324	74.933	757.324	76.8766
785.156	77.6813	785.156	75.3501	785.156	77.8878	785.156	76.7207	785.156	74.0346	785.156	76.8369
811.523	77.4258	811.523	75.5148	811.523	77.6748	811.523	76.8547	811.523	75.0593	811.523	76.8654
840.82	77.7119	840.82	75.4227	840.82	77.6365	840.82	76.6822	840.82	74.7992	840.82	76.7996
870.117	77.7224	870.117	75.7628	870.117	77.8982	870.117	76.4681	870.117	75.3707	870.117	76.8843
900.879	78.6653	900.879	75.6396	900.879	78.9006	900.879	76.9398	900.879	74.9932	900.879	77.5027
933.105	78.2969	933.105	75.453	933.105	78.953	933.105	77.0274	933.105	75.5718	933.105	77.5252
965.332	78.3896	965.332	75.956	965.332	79.1823	965.332	76.8591	965.332	75.0111	965.332	77.5689
1,000.49	78.0893	1,000.49	75.536	1,000.49	78.6262	1,000.49	76.2727	1,000.49	75.0853	1,000.49	77.0933
1,035.64	77.8207	1,035.64	75.4579	1,035.64	78.9304	1,035.64	75.6697	1,035.64	73.5926	1,035.64	76.8944
1,072.27	77.5916	1,072.27	75.1153	1,072.27	78.4303	1,072.27	75.1419	1,072.27	73.599	1,072.27	76.4679
1,108.89	76.9157	1,108.89	74.7796	1,108.89	77.8873	1,108.89	74.4582	1,108.89	72.121	1,108.89	75.833
1,148.44	77.2892	1,148.44	74.952	1,148.44	77.8225	1,148.44	74.2431	1,148.44	71.9106	1,148.44	75.8099
1,189.45	77.4898	1,189.45	75.6107	1,189.45	78.4732	1,189.45	74.8084	1,189.45	71.8135	1,189.45	76.3352
1,230.47	77.796	1,230.47	75.3022	1,230.47	78.9411	1,230.47	75.1504	1,230.47	72.7339	1,230.47	76.6943
1,274.41	77.41	1,274.41	75.0899	1,274.41	79.1	1,274.41	75.6017	1,274.41	72.2157	1,274.41	76.7994
1,319.82	77.6491	1,319.82	74.9505	1,319.82	79.3268	1,319.82	75.5052	1,319.82	72.1448	1,319.82	76.8961
1,366.7	77.7611	1,366.7	75.3204	1,366.7	79.3691	1,366.7	75.6465	1,366.7	72.6238	1,366.7	77.0181
1,413.57	77.1667	1,413.57	74.0197	1,413.57	78.7665	1,413.57	75.1144	1,413.57	71.6402	1,413.57	76.3706
1,463.38	77.1239	1,463.38	75.6274	1,463.38	78.2817	1,463.38	75.1965	1,463.38	69.6701	1,463.38	76.2415
1,516.11	77.2629	1,516.11	75.9974	1,516.11	77.2147	1,516.11	74.2014	1,516.11	68.8252	1,516.11	75.5524
1,568.85	76.8369	1,568.85	75.633	1,568.85	76.5267	1,568.85	73.462	1,568.85	67.6679	1,568.85	74.9278
1,624.51	77.3875	1,624.51	75.3661	1,624.51	76.9212	1,624.51	73.5001	1,624.51	67.7188	1,624.51	75.1635
1,681.64	77.5144	1,681.64	75.2751	1,681.64	78.235	1,681.64	74.3213	1,681.64	67.5624	1,681.64	75.9539
1,741.7	77.8977	1,741.7	75.3568	1,741.7	78.3561	1,741.7	74.8924	1,741.7	68.4819	1,741.7	76.252
1,803.22	78.0475	1,803.22	74.2382	1,803.22	78.0427	1,803.22	74.8326	1,803.22	68.5929	1,803.22	76.033
1,866.21	78.9025	1,866.21	74.6694	1,866.21	77.4783	1,866.21	74.0609	1,866.21	68.6503	1,866.21	75.8036
1,932.13	78.5518	1,932.13	73.2349	1,932.13	76.7206	1,932.13	72.3496	1,932.13	67.0675	1,932.13	74.8492
1,999.51	78.8844	1,999.51	74.807	1,999.51	78.1093	1,999.51	73.5302	1,999.51	68.5933	1,999.51	75.9484
2,069.82	78.5587	2,069.82	75.3155	2,069.82	79.1249	2,069.82	74.1463	2,069.82	69.5563	2,069.82	76.5559
2,143.07	78.0457	2,143.07	75.3214	2,143.07	78.9512	2,143.07	74.8494	2,143.07	69.4277	2,143.07	76.5507
2,219.24	77.7495	2,219.24	74.9791	2,219.24	77.9935	2,219.24	74.3339	2,219.24	68.0605	2,219.24	75.87
2,296.88	77.722	2,296.88	73.6431	2,296.88	77.6338	2,296.88	73.617	2,296.88	67.6653	2,296.88	75.3947
2,378.91	76.3619	2,378.91	73.8604	2,378.91	78.7428	2,378.91	74.5266	2,378.91	68.2633	2,378.91	75.9808
2,462.4	76.1177	2,462.4	74.9171	2,462.4	80.1876	2,462.4	76.0824	2,462.4	69.2857	2,462.4	77.2423
2,548.83	77.0353	2,548.83	75.4935	2,548.83	80.1052	2,548.83	76.0466	2,548.83	69.2262	2,548.83	77.3194
2,639.65	77.3794	2,639.65	75.1041	2,639.65	78.7609	2,639.65	75.0707	2,639.65	67.9131	2,639.65	76.3713
2,731.93	76.0135	2,731.93	73.9635	2,731.93	78.3028	2,731.93	74.4236	2,731.93	67.6736	2,731.93	75.6846
2,828.61	75.0944	2,828.61	74.0177	2,828.61	78.9432	2,828.61	74.8757	2,828.61	67.8546	2,828.61	76.0499
2,928.22	74.4953	2,928.22	74.3243	2,928.22	79.4398	2,928.22	75.5321	2,928.22	68.3354	2,928.22	76.4905
3,030.76	74.0878	3,030.76	74.3495	3,030.76	79.4942	3,030.76	75.7445	3,030.76	68.5919	3,030.76	76.5642
3,137.7	73.1764	3,137.7	74.0337	3,137.7	79.5444	3,137.7	75.6105	3,137.7	69.2021	3,137.7	76.4855
3,249.02	71.3455	3,249.02	74.6055	3,249.02	79.5589	3,249.02	75.4231	3,249.02	67.7595	3,249.02	76.3672
3,363.28	70.2729	3,363.28	75.5866	3,363.28	79.8064	3,363.28	75.5683	3,363.28	67.4066	3,363.28	76.5946
3,481.93	71.1711	3,481.93	76.289	3,481.93	79.7615	3,481.93	76.1504	3,481.93	68.0379	3,481.93	76.8566
3,604.98	71.7519	3,604.98	76.9929	3,604.98	80.0642	3,604.98	76.7098	3,604.98	69.0383	3,604.98	77.3062
3,732.42	72.3859	3,732.42	77.6904	3,732.42	80.7226	3,732.42	77.4245	3,732.42	68.7054	3,732.42	77.9717
3,864.26	74.1426	3,864.26	77.9028	3,864.26	79.611	3,864.26	76.87	3,864.26	68.394	3,864.26	77.3428
4,000.49	74.1736	4,000.49	77.5172	4,000.49	79.8157	4,000.49	77.1003	4,000.49	69.2205	4,000.49	77.4839
4,141.11	75.6126	4,141.11	78.2092	4,141.11	80.887	4,141.11	77.5614	4,141.11	69.7979	4,141.11	78.3189
4,287.6	76.601	4,287.6	78.3372	4,287.6	80.9384	4,287.6	77.8536	4,287.6	69.5266	4,287.6	78.5161
4,438.48	76.807	4,438.48	78.7491	4,438.48	81.3099	4,438.48	78.2611	4,438.48	69.5699	4,438.48	78.8874
4,595.21	76.0271	4,595.21	78.0244	4,595.21	81.0549	4,595.21	77.7429	4,595.21	70.7474	4,595.21	78.4827
4,756.35	75.538	4,756.35	77.5785	4,756.35	81.7615	4,756.35	78.0959	4,756.35	70.3624	4,756.35	78.8757
4,924.8	76.5177	4,924.8	76.8787	4,924.8	82.2227	4,924.8	78.9968	4,924.8	70.9175	4,924.8	79.4284
5,097.66	77.6925	5,097.66	75.5854	5,097.66	81.8473	5,097.66	78.7331	5,097.66	71.612	5,097.66	79.1675
5,277.83	77.8046	5,277.83	75.5475	5,277.83	81.7683	5,277.83	78.6815	5,277.83	71.3302	5,277.83	79.1121
5,463.87	79.8273	5,463.87	75.0026	5,463.87	81.9795	5,463.87	79.3182	5,463.87	71.1044	5,463.87	79.6176
5,657.23	80.1695	5,657.23	75.7088	5,657.23	82.6109	5,657.23	79.5175	5,657.23	70.6916	5,657.23	80.0509
5,856.45	80.0955	5,856.45	76.1509	5,856.45	82.0185	5,856.45	78.9756	5,856.45	70.6378	5,856.45	79.5961
6,062.99	80.3078	6,062.99	77.7733	6,062.99	80.4829	6,062.99	78.3942	6,062.99	69.9161	6,062.99	78.87
6,276.86	79.9874	6,276.86	77.9864	6,276.86	78.7703	6,276.86	77.2249	6,276.86	69.101	6,276.86	77.8021
6,498.05	79.9515	6,498.05	78.0331	6,498.05	79.5686	6,498.05	76.9166	6,498.05	69.111	6,498.05	77.9916
6,726.56	79.9448	6,726.56	77.7266	6,726.56	79.3319	6,726.56	77.2513	6,726.56	69.323	6,726.56	77.9744
6,963.87	79.9639	6,963.87	77.6014	6,963.87	79.4324	6,963.87	77.4055	6,963.87	69.5698	6,963.87	78.0562
7,209.96	79.9126	7,209.96	77.1784	7,209.96	80.4481	7,209.96	77.9045	7,209.96	69.7626	7,209.96	78.5743
7,464.84	79.4868	7,464.84	77.2242	7,464.84	80.5033	7,464.84	77.7975	7,464.84	69.4675	7,464.84	78.4976
7,727.05	78.4675	7,727.05	77.1782	7,727.05	81.1297	7,727.05	77.9868	7,727.05	70.2087	7,727.05	78.7192
7,999.51	78.0251	7,999.51	77.246	7,999.51	80.257	7,999.51	77.6588	7,999.51	70.2665	7,999.51	78.1735
8,282.23	79.3183	8,282.23	77.123	8,282.23	80.4293	8,282.23	77.364	8,282.23	70.0187	8,282.23	78.3028
8,573.73	81.0057	8,573.73	77.1306	8,573.73	80.5026	8,573.73	77.1223	8,573.73	67.8295	8,573.73	78.5283
8,876.95	81.3219	8,876.95	76.7794	8,876.95	80.4959	8,876.95	75.5523	8,876.95	67.3437	8,876.95	78.1795
9,188.96	79.8052	9,188.96	76.4923	9,188.96	79.6908	9,188.96	74.9991	9,188.96	65.6656	9,188.96	77.3107
9,514.16	78.9563	9,514.16	75.8619	9,514.16	79.5454	9,514.16	74.9056	9,514.16	66.0081	9,514.16	77.0012
9,849.61	78.0479	9,849.61	74.8674	9,849.61	79.4561	9,849.61	74.7732	9,849.61	65.0283	9,849.61	76.6806
10,196.8	77.9336	10,196.8	73.9986	10,196.8	80.0737	10,196.8	74.8395	10,196.8	63.5955	10,196.8	76.9405
10,555.7	78.535	10,555.7	73.3808	10,555.7	80.4058	10,555.7	74.8553	10,555.7	63.1669	10,555.7	77.1859
10,927.7	78.6398	10,927.7	72.9777	10,927.7	80.6812	10,927.7	74.8945	10,927.7	63.6657	10,927.7	77.3528
11,313	78.9664	11,313	72.3234	11,313	80.5365	11,313	74.6176	11,313	62.9383	11,313	77.234
11,712.9	79.9801	11,712.9	70.1492	11,712.9	80.3501	11,712.9	74.4676	11,712.9	63.1172	11,712.9	77.2312
12,126	79.3471	12,126	67.4609	12,126	80.5754	12,126	74.3057	12,126	63.1669	12,126	77.1528
12,553.7	79.552	12,553.7	67.8142	12,553.7	80.7346	12,553.7	73.7394	12,553.7	61.6983	12,553.7	77.1816
12,996.1	79.2944	12,996.1	69.3863	12,996.1	80.6906	12,996.1	72.8775	12,996.1	59.2732	12,996.1	76.9838
13,454.6	79.2912	13,454.6	70.6784	13,454.6	80.9429	13,454.6	71.8316	13,454.6	56.8859	13,454.6	77.0348
13,929.2	79.6473	13,929.2	70.2373	13,929.2	80.5197	13,929.2	71.4352	13,929.2	58.0649	13,929.2	76.7787
14,419.9	78.7315	14,419.9	68.2849	14,419.9	79.7399	14,419.9	71.6614	14,419.9	60.4255	14,419.9	76.0764
14,928.2	78.0607	14,928.2	67.2051	14,928.2	79.4981	14,928.2	71.4189	14,928.2	60.0708	14,928.2	75.7314
15,455.6	77.3025	15,455.6	67.1331	15,455.6	79.6788	15,455.6	70.8618	15,455.6	57.8575	15,455.6	75.6302
16,000.5	77.4975	16,000.5	68.2421	16,000.5	80.2459	16,000.5	70.0491	16,000.5	54.1715	16,000.5	75.9842
16,564.5	77.163	16,564.5	68.8182	16,564.5	80.3564	16,564.5	68.7414	16,564.5	51.149	16,564.5	75.9109
17,148.9	77.1563	17,148.9	67.5508	17,148.9	80.3614	17,148.9	67.9826	17,148.9	51.9226	17,148.9	75.8372
17,752.4	77.2734	17,752.4	65.5927	17,752.4	80.6421	17,752.4	67.5999	17,752.4	53.0056	17,752.4	76.0234
18,379.4	76.638	18,379.4	64.324	18,379.4	80.4323	18,379.4	67.1205	18,379.4	53.3204	18,379.4	75.7264
19,026.9	75.059	19,026.9	62.3505	19,026.9	79.7364	19,026.9	65.8873	19,026.9	53.0727	19,026.9	74.8784
19,697.8	73.4058	19,697.8	60.0866	19,697.8	78.7142	19,697.8	63.7085	19,697.8	53.5686	19,697.8	73.7289
19,999.5	72.8574	19,999.5	59.9918	19,999.5	78.3155	19,999.5	62.6789	19,999.5	53.5746	19,999.5	73.2938
