"Vertical Reflections"					
"Floor Reflection"		"Ceiling Reflection"		"Total Vertical Reflection"	
"Frequency [Hz]"	"Sound Pessure Level [dB]  / [2.83V 1m] "	"Frequency [Hz]"	"Sound Pessure Level [dB]  / [2.83V 1m] "	"Frequency [Hz]"	"Sound Pessure Level [dB]  / [2.83V 1m] "
20.5078	41.4045	20.5078	45.7669	20.5078	44.1119
21.9727	49.7275	21.9727	50.4354	21.9727	50.0958
23.4375	49.4555	23.4375	46.2177	23.4375	48.1316
24.9023	47.1329	24.9023	46.8721	24.9023	47.0044
26.3672	53.4673	26.3672	52.1763	26.3672	52.8696
27.832	53.4022	27.832	51.4633	27.832	52.5401
29.2969	56.1256	29.2969	55.1755	29.2969	55.6765
30.7617	59.4559	30.7617	58.2651	30.7617	58.9012
32.2266	59.9677	32.2266	58.5967	32.2266	59.3361
33.6914	60.7127	33.6914	59.4788	33.6914	60.1394
35.1562	62.6599	35.1562	61.6858	35.1562	62.2001
36.6211	64.38	36.6211	63.3936	36.6211	63.9148
38.0859	65.6047	38.0859	64.6303	38.0859	65.1448
39.5508	66.3604	39.5508	65.3654	39.5508	65.8913
41.0156	66.7494	41.0156	65.6835	41.0156	66.2491
42.4805	67.7772	42.4805	66.8897	42.4805	67.3561
43.9453	69.2819	43.9453	68.5288	43.9453	68.9216
45.4102	70.532	45.4102	69.7806	45.4102	70.1725
46.875	71.0353	46.875	70.242	46.875	70.6567
48.3398	71.2865	48.3398	70.4672	48.3398	70.8962
51.2695	72.6733	51.2695	71.939	51.2695	72.3216
52.7344	73.6641	52.7344	73.0046	52.7344	73.3469
54.1992	74.4418	54.1992	73.8295	54.1992	74.1464
55.6641	74.8833	55.6641	74.2746	55.6641	74.5896
58.5938	75.0425	58.5938	74.4195	58.5938	74.7421
60.0586	75.46	60.0586	74.8387	60.0586	75.1605
62.9883	76.7936	62.9883	76.2079	62.9883	76.5106
64.4531	77.0797	64.4531	76.5383	64.4531	76.8174
67.3828	77.1089	67.3828	76.5924	67.3828	76.8583
68.8477	77.0051	68.8477	76.4584	68.8477	76.7404
71.7773	77.6041	71.7773	77.0318	71.7773	77.3273
74.707	77.9927	74.707	77.4924	74.707	77.7497
77.6367	78.1264	77.6367	77.6584	77.6367	77.8987
79.1016	78.3053	79.1016	77.8289	79.1016	78.0736
82.0312	78.5192	82.0312	78.0096	82.0312	78.2718
84.9609	78.353	84.9609	77.8391	84.9609	78.1037
87.8906	78.6347	87.8906	78.1669	87.8906	78.4071
90.8203	78.9614	90.8203	78.4524	90.8203	78.7143
95.2148	79.0014	95.2148	78.5776	95.2148	78.7946
98.1445	79.268	98.1445	78.7677	98.1445	79.025
101.074	79.1908	101.074	78.7313	101.074	78.9671
105.469	79.7607	105.469	79.3235	105.469	79.5476
108.398	79.6953	108.398	79.2444	108.398	79.4757
112.793	80.1166	112.793	79.5848	112.793	79.8588
117.188	80.3958	117.188	79.7601	117.188	80.0896
120.117	80.644	120.117	80.0834	120.117	80.3727
124.512	80.3799	124.512	79.8996	124.512	80.1464
128.906	80.134	128.906	79.6945	128.906	79.9198
133.301	80.2302	133.301	79.772	133.301	80.0071
139.16	80.4069	139.16	79.8488	139.16	80.1368
143.555	80.6655	143.555	80.0703	143.555	80.3781
147.949	80.84	147.949	80.1607	147.949	80.5136
153.809	80.9661	153.809	80.3815	153.809	80.6836
159.668	81.0439	159.668	80.4472	159.668	80.7558
165.527	81.1056	165.527	80.5071	165.527	80.8167
171.387	81.0538	171.387	80.4626	171.387	80.7682
177.246	80.8978	177.246	80.2717	177.246	80.596
183.105	80.7896	183.105	80.1919	183.105	80.501
188.965	80.7736	188.965	80.2784	188.965	80.533
196.289	80.8848	196.289	80.2593	196.289	80.5833
203.613	80.7995	203.613	80.1613	203.613	80.4921
210.938	80.6654	210.938	80.0527	210.938	80.3699
218.262	80.4177	218.262	79.8431	218.262	80.1399
225.586	80.3153	225.586	79.554	225.586	79.9513
232.91	80.4227	232.91	79.7089	232.91	80.0804
241.699	80.1141	241.699	79.3855	241.699	79.7651
250.488	80.037	250.488	78.8385	250.488	79.4789
259.277	80.0315	259.277	78.8713	259.277	79.49
268.066	79.6686	268.066	78.8767	268.066	79.2907
276.855	78.9492	276.855	78.7738	276.855	78.8624
287.109	77.6044	287.109	76.8881	287.109	77.261
297.363	79.2755	297.363	77.9559	297.363	78.6656
307.617	79.1671	307.617	77.9065	307.617	78.5824
319.336	79.0933	319.336	77.8471	319.336	78.5147
329.59	78.6814	329.59	77.4735	329.59	78.1193
341.309	78.6944	341.309	77.3675	341.309	78.0814
353.027	78.374	353.027	77.1273	353.027	77.7952
366.211	78.0938	366.211	76.9182	366.211	77.5456
379.395	77.7886	379.395	76.8988	379.395	77.3664
392.578	76.8814	392.578	75.9933	392.578	76.46
405.762	76.314	405.762	74.6483	405.762	75.5605
420.41	79.659	420.41	76.8933	420.41	78.4927
435.059	79.1002	435.059	76.858	435.059	78.1222
451.172	79.6058	451.172	76.6218	451.172	78.3652
465.82	79.7441	465.82	77.2428	465.82	78.6711
483.398	79.6662	483.398	77.2949	483.398	78.6404
499.512	79.595	499.512	77.2897	499.512	78.5936
517.09	79.4743	517.09	77.3865	517.09	78.5547
536.133	78.5595	536.133	76.2754	536.133	77.5659
555.176	78.9898	555.176	76.3368	555.176	77.8628
574.219	79.1284	574.219	76.5794	574.219	78.0383
594.727	78.5284	594.727	75.7626	594.727	77.3621
615.234	78.4237	615.234	75.6509	615.234	77.2549
637.207	78.3485	637.207	75.4338	637.207	77.1312
659.18	77.4696	659.18	74.996	659.18	76.4066
682.617	77.4277	682.617	74.2843	682.617	76.1344
707.52	77.4537	707.52	73.7299	707.52	75.9792
732.422	77.0429	732.422	74.1138	732.422	75.8208
757.324	78.1439	757.324	74.3669	757.324	76.6537
785.156	77.6813	785.156	75.3501	785.156	76.6703
811.523	77.4258	811.523	75.5148	811.523	76.5746
840.82	77.7119	840.82	75.4227	840.82	76.7164
870.117	77.7224	870.117	75.7628	870.117	76.8522
900.879	78.6653	900.879	75.6396	900.879	77.4108
933.105	78.2969	933.105	75.453	933.105	77.1037
965.332	78.3896	965.332	75.956	965.332	77.3411
1,000.49	78.0893	1,000.49	75.536	1,000.49	76.9977
1,035.64	77.8207	1,035.64	75.4579	1,035.64	76.798
1,072.27	77.5916	1,072.27	75.1153	1,072.27	76.5276
1,108.89	76.9157	1,108.89	74.7796	1,108.89	75.9777
1,148.44	77.2892	1,148.44	74.952	1,148.44	76.2759
1,189.45	77.4898	1,189.45	75.6107	1,189.45	76.6511
1,230.47	77.796	1,230.47	75.3022	1,230.47	76.7257
1,274.41	77.41	1,274.41	75.0899	1,274.41	76.4031
1,319.82	77.6491	1,319.82	74.9505	1,319.82	76.5061
1,366.7	77.7611	1,366.7	75.3204	1,366.7	76.71
1,413.57	77.1667	1,413.57	74.0197	1,413.57	75.8722
1,463.38	77.1239	1,463.38	75.6274	1,463.38	76.4398
1,516.11	77.2629	1,516.11	75.9974	1,516.11	76.6761
1,568.85	76.8369	1,568.85	75.633	1,568.85	76.2765
1,624.51	77.3875	1,624.51	75.3661	1,624.51	76.4934
1,681.64	77.5144	1,681.64	75.2751	1,681.64	76.5375
1,741.7	77.8977	1,741.7	75.3568	1,741.7	76.8105
1,803.22	78.0475	1,803.22	74.2382	1,803.22	76.5477
1,866.21	78.9025	1,866.21	74.6694	1,866.21	77.2825
1,932.13	78.5518	1,932.13	73.2349	1,932.13	76.6607
1,999.51	78.8844	1,999.51	74.807	1,999.51	77.3076
2,069.82	78.5587	2,069.82	75.3155	2,069.82	77.2331
2,143.07	78.0457	2,143.07	75.3214	2,143.07	76.8938
2,219.24	77.7495	2,219.24	74.9791	2,219.24	76.5816
2,296.88	77.722	2,296.88	73.6431	2,296.88	76.1448
2,378.91	76.3619	2,378.91	73.8604	2,378.91	75.2888
2,462.4	76.1177	2,462.4	74.9171	2,462.4	75.5588
2,548.83	77.0353	2,548.83	75.4935	2,548.83	76.3325
2,639.65	77.3794	2,639.65	75.1041	2,639.65	76.3891
2,731.93	76.0135	2,731.93	73.9635	2,731.93	75.1083
2,828.61	75.0944	2,828.61	74.0177	2,828.61	74.5893
2,928.22	74.4953	2,928.22	74.3243	2,928.22	74.4107
3,030.76	74.0878	3,030.76	74.3495	3,030.76	74.2206
3,137.7	73.1764	3,137.7	74.0337	3,137.7	73.6262
3,249.02	71.3455	3,249.02	74.6055	3,249.02	73.2745
3,363.28	70.2729	3,363.28	75.5866	3,363.28	73.6963
3,481.93	71.1711	3,481.93	76.289	3,481.93	74.444
3,604.98	71.7519	3,604.98	76.9929	3,604.98	75.1192
3,732.42	72.3859	3,732.42	77.6904	3,732.42	75.8021
3,864.26	74.1426	3,864.26	77.9028	3,864.26	76.4175
4,000.49	74.1736	4,000.49	77.5172	4,000.49	76.1595
4,141.11	75.6126	4,141.11	78.2092	4,141.11	77.1021
4,287.6	76.601	4,287.6	78.3372	4,287.6	77.5553
4,438.48	76.807	4,438.48	78.7491	4,438.48	77.8857
4,595.21	76.0271	4,595.21	78.0244	4,595.21	77.1396
4,756.35	75.538	4,756.35	77.5785	4,756.35	76.677
4,924.8	76.5177	4,924.8	76.8787	4,924.8	76.7019
5,097.66	77.6925	5,097.66	75.5854	5,097.66	76.7655
5,277.83	77.8046	5,277.83	75.5475	5,277.83	76.8211
5,463.87	79.8273	5,463.87	75.0026	5,463.87	78.0531
5,657.23	80.1695	5,657.23	75.7088	5,657.23	78.4883
5,856.45	80.0955	5,856.45	76.1509	5,856.45	78.5564
6,062.99	80.3078	6,062.99	77.7733	6,062.99	79.2228
6,276.86	79.9874	6,276.86	77.9864	6,276.86	79.1012
6,498.05	79.9515	6,498.05	78.0331	6,498.05	79.0974
6,726.56	79.9448	6,726.56	77.7266	6,726.56	78.9758
6,963.87	79.9639	6,963.87	77.6014	6,963.87	78.9414
7,209.96	79.9126	7,209.96	77.1784	7,209.96	78.7572
7,464.84	79.4868	7,464.84	77.2242	7,464.84	78.5012
7,727.05	78.4675	7,727.05	77.1782	7,727.05	77.8705
7,999.51	78.0251	7,999.51	77.246	7,999.51	77.653
8,282.23	79.3183	8,282.23	77.123	8,282.23	78.3579
8,573.73	81.0057	8,573.73	77.1306	8,573.73	79.4867
8,876.95	81.3219	8,876.95	76.7794	8,876.95	79.6193
9,188.96	79.8052	9,188.96	76.4923	9,188.96	78.4573
9,514.16	78.9563	9,514.16	75.8619	9,514.16	77.679
9,849.61	78.0479	9,849.61	74.8674	9,849.61	76.7425
10,196.8	77.9336	10,196.8	73.9986	10,196.8	76.3973
10,555.7	78.535	10,555.7	73.3808	10,555.7	76.6815
10,927.7	78.6398	10,927.7	72.9777	10,927.7	76.6727
11,313	78.9664	11,313	72.3234	11,313	76.8077
11,712.9	79.9801	11,712.9	70.1492	11,712.9	77.3994
12,126	79.3471	12,126	67.4609	12,126	76.6094
12,553.7	79.552	12,553.7	67.8142	12,553.7	76.8234
12,996.1	79.2944	12,996.1	69.3863	12,996.1	76.7065
13,454.6	79.2912	13,454.6	70.6784	13,454.6	76.8409
13,929.2	79.6473	13,929.2	70.2373	13,929.2	77.108
14,419.9	78.7315	14,419.9	68.2849	14,419.9	76.0964
14,928.2	78.0607	14,928.2	67.2051	14,928.2	75.3932
15,455.6	77.3025	15,455.6	67.1331	15,455.6	74.691
16,000.5	77.4975	16,000.5	68.2421	16,000.5	74.9744
16,564.5	77.163	16,564.5	68.8182	16,564.5	74.7461
17,148.9	77.1563	17,148.9	67.5508	17,148.9	74.5974
17,752.4	77.2734	17,752.4	65.5927	17,752.4	74.5484
18,379.4	76.638	18,379.4	64.324	18,379.4	73.8754
19,026.9	75.059	19,026.9	62.3505	19,026.9	72.2755
19,697.8	73.4058	19,697.8	60.0866	19,697.8	70.5931
19,999.5	72.8574	19,999.5	59.9918	19,999.5	70.066
