"Early Reflections"											
"Floor Bounce"		"Ceiling Bounce"		"Front Wall Bounce"		"Side Wall Bounce"		"Rear Wall Bounce"		"Total Early Reflection"	
"Frequency [Hz]"	"Sound Pessure Level [dB]  / [2.83V 1m] "	"Frequency [Hz]"	"Sound Pessure Level [dB]  / [2.83V 1m] "	"Frequency [Hz]"	"Sound Pessure Level [dB]  / [2.83V 1m] "	"Frequency [Hz]"	"Sound Pessure Level [dB]  / [2.83V 1m] "	"Frequency [Hz]"	"Sound Pessure Level [dB]  / [2.83V 1m] "	"Frequency [Hz]"	"Sound Pessure Level [dB]  / [2.83V 1m] "
20.5078	79.0919	20.5078	78.6687	20.5078	79.0193	20.5078	78.9022	20.5078	78.4998	20.5078	78.8859
21.9727	81.7463	21.9727	81.26	21.9727	81.641	21.9727	81.5263	21.9727	81.1411	21.9727	81.5113
23.4375	83.7496	23.4375	83.247	23.4375	83.6321	23.4375	83.5393	23.4375	83.1628	23.4375	83.5151
24.9023	85.3613	24.9023	84.8852	24.9023	85.2578	24.9023	85.16	24.9023	84.7605	24.9023	85.1356
26.3672	87.1774	26.3672	86.7104	26.3672	87.0698	26.3672	86.9774	26.3672	86.6125	26.3672	86.9559
27.832	89.1497	27.832	88.6688	27.832	89.0364	27.832	88.936	27.832	88.5872	27.832	88.92
29.2969	90.5462	29.2969	90.0933	29.2969	90.4535	29.2969	90.3517	29.2969	89.9708	29.2969	90.3313
30.7617	92.2663	30.7617	91.832	30.7617	92.1686	30.7617	92.0904	30.7617	91.7683	30.7617	92.0675
32.2266	93.4807	32.2266	93.0429	32.2266	93.3873	32.2266	93.2981	32.2266	92.9534	32.2266	93.277
33.6914	94.8516	33.6914	94.398	33.6914	94.7545	33.6914	94.6598	33.6914	94.3025	33.6914	94.6393
35.1562	95.8987	35.1562	95.4314	35.1562	95.8008	35.1562	95.6886	35.1562	95.3107	35.1562	95.6734
36.6211	96.604	36.6211	96.1383	36.6211	96.5054	36.6211	96.3994	36.6211	96.0327	36.6211	96.3826
38.0859	97.1166	38.0859	96.6461	38.0859	97.0179	38.0859	96.9123	38.0859	96.5434	38.0859	96.8946
39.5508	97.3571	39.5508	96.8929	39.5508	97.2614	39.5508	97.1549	39.5508	96.7897	39.5508	97.138
41.0156	97.4925	41.0156	97.0142	41.0156	97.3952	41.0156	97.2766	41.0156	96.901	41.0156	97.2636
42.4805	97.5819	42.4805	97.1007	42.4805	97.4822	42.4805	97.3678	42.4805	96.9926	42.4805	97.3529
43.9453	97.6243	43.9453	97.1391	43.9453	97.5258	43.9453	97.4013	43.9453	97.0138	43.9453	97.3895
45.4102	97.5584	45.4102	97.0867	45.4102	97.4643	45.4102	97.3461	45.4102	96.9708	45.4102	97.3329
46.875	97.552	46.875	97.0827	46.875	97.4589	46.875	97.3442	46.875	96.9735	46.875	97.3297
48.3398	97.5458	48.3398	97.0574	48.3398	97.4459	48.3398	97.3316	48.3398	96.9657	48.3398	97.3169
51.2695	97.5339	51.2695	97.0316	51.2695	97.4327	51.2695	97.3068	51.2695	96.9331	51.2695	97.296
52.7344	97.5265	52.7344	97.0369	52.7344	97.4322	52.7344	97.3005	52.7344	96.9223	52.7344	97.2919
54.1992	97.5437	54.1992	97.0658	54.1992	97.4558	54.1992	97.3229	54.1992	96.9453	54.1992	97.3148
55.6641	97.5793	55.6641	97.099	55.6641	97.4904	55.6641	97.3603	55.6641	96.9935	55.6641	97.3519
58.5938	97.4717	58.5938	96.9865	58.5938	97.3892	58.5938	97.2519	58.5938	96.862	58.5938	97.2427
60.0586	97.5185	60.0586	97.0256	60.0586	97.4311	60.0586	97.2915	60.0586	96.9016	60.0586	97.2838
62.9883	97.5088	62.9883	96.9951	62.9883	97.419	62.9883	97.2672	62.9883	96.8675	62.9883	97.263
64.4531	97.4711	64.4531	96.9354	64.4531	97.3768	64.4531	97.2166	64.4531	96.8052	64.4531	97.2141
67.3828	97.1883	67.3828	96.6255	67.3828	97.0821	67.3828	96.9402	67.3828	96.5748	67.3828	96.933
68.8477	97.111	68.8477	96.5542	68.8477	97.0083	68.8477	96.8651	68.8477	96.5018	68.8477	96.8586
71.7773	97.0502	71.7773	96.509	71.7773	96.9623	71.7773	96.7977	71.7773	96.3917	71.7773	96.7959
74.707	96.8993	74.707	96.4082	74.707	96.8337	74.707	96.6514	74.707	96.2314	74.707	96.6575
77.6367	96.728	77.6367	96.23	77.6367	96.6567	77.6367	96.4827	77.6367	96.0931	77.6367	96.4883
79.1016	96.6322	79.1016	96.125	79.1016	96.5578	79.1016	96.3825	79.1016	96.0041	79.1016	96.3897
82.0312	96.4818	82.0312	95.9474	82.0312	96.4032	82.0312	96.2204	82.0312	95.8345	82.0312	96.2286
84.9609	96.3976	84.9609	95.8584	84.9609	96.3215	84.9609	96.147	84.9609	95.7812	84.9609	96.152
87.8906	96.4334	87.8906	95.9037	87.8906	96.3726	87.8906	96.1748	87.8906	95.8043	87.8906	96.1887
90.8203	96.4942	90.8203	95.9299	90.8203	96.4327	90.8203	96.1956	90.8203	95.7659	90.8203	96.2199
95.2148	96.5643	95.2148	95.9847	95.2148	96.5117	95.2148	96.2595	95.2148	95.8042	95.2148	96.2852
98.1445	96.6926	98.1445	96.1279	98.1445	96.6475	98.1445	96.3923	98.1445	95.9376	98.1445	96.4195
101.074	96.6796	101.074	96.1453	101.074	96.653	101.074	96.4082	101.074	95.9733	101.074	96.4311
105.469	96.7802	105.469	96.2887	105.469	96.7804	105.469	96.5063	105.469	96.0656	105.469	96.5421
108.398	97.0401	108.398	96.5909	108.398	97.0737	108.398	96.7579	108.398	96.2439	108.398	96.8046
112.793	97.268	112.793	96.7582	112.793	97.2823	112.793	96.9411	112.793	96.3951	112.793	96.9956
117.188	97.3924	117.188	96.8533	117.188	97.4081	117.188	97.0734	117.188	96.5409	117.188	97.1224
120.117	97.4488	120.117	96.9028	120.117	97.4734	120.117	97.1287	120.117	96.5915	120.117	97.1796
124.512	97.5835	124.512	97.0005	124.512	97.5877	124.512	97.2267	124.512	96.6758	124.512	97.2854
128.906	97.6535	128.906	97.0304	128.906	97.6496	128.906	97.257	128.906	96.7136	128.906	97.3305
133.301	97.7144	133.301	97.04	133.301	97.6896	133.301	97.2887	133.301	96.7677	133.301	97.3681
139.16	97.7543	139.16	96.9695	139.16	97.7048	139.16	97.2756	139.16	96.7349	139.16	97.3618
143.555	97.8215	143.555	96.9692	143.555	97.7756	143.555	97.2936	143.555	96.6728	143.555	97.3917
147.949	97.8621	147.949	97.0084	147.949	97.8293	147.949	97.2739	147.949	96.5971	147.949	97.4021
153.809	97.764	153.809	96.9539	153.809	97.7954	153.809	97.2146	153.809	96.4689	153.809	97.3394
159.668	97.8777	159.668	97.1053	159.668	97.9085	159.668	97.3956	159.668	96.6935	159.668	97.4927
165.527	97.9355	165.527	97.2375	165.527	97.9997	165.527	97.4441	165.527	96.8035	165.527	97.5699
171.387	98.0798	171.387	97.1766	171.387	98.0997	171.387	97.4284	171.387	96.618	171.387	97.5884
177.246	98.0438	177.246	97.1398	177.246	98.0613	177.246	97.3425	177.246	96.4976	177.246	97.5254
183.105	97.9433	183.105	96.9898	183.105	97.9521	183.105	97.2106	183.105	96.4271	183.105	97.4083
188.965	97.8129	188.965	96.9564	188.965	97.922	188.965	97.1578	188.965	96.2943	188.965	97.3471
196.289	97.9121	196.289	97.1425	196.289	98.049	196.289	97.2494	196.289	96.33	196.289	97.4556
203.613	97.9328	203.613	97.0421	203.613	98.1215	203.613	97.2321	203.613	96.1603	203.613	97.449
210.938	97.9485	210.938	97.1825	210.938	98.1713	210.938	97.2399	210.938	95.9679	210.938	97.4685
218.262	97.7586	218.262	97.1926	218.262	97.991	218.262	97.0928	218.262	95.9976	218.262	97.3374
225.586	97.8509	225.586	97.1309	225.586	98.089	225.586	97.1394	225.586	96.0994	225.586	97.3988
232.91	98.1273	232.91	97.2091	232.91	98.3154	232.91	97.278	232.91	95.9606	232.91	97.5538
241.699	98.0029	241.699	96.9337	241.699	98.0578	241.699	97.1102	241.699	95.7664	241.699	97.3496
250.488	98.4966	250.488	96.7928	250.488	98.3442	250.488	97.0792	250.488	95.4758	250.488	97.4638
259.277	98.147	259.277	96.7515	259.277	98.1412	259.277	97.0878	259.277	95.6165	259.277	97.3573
268.066	97.7377	268.066	96.2705	268.066	97.7421	268.066	96.6744	268.066	95.4161	268.066	96.9592
276.855	97.8272	276.855	96.7071	276.855	97.9925	276.855	96.5574	276.855	94.9766	276.855	97.0241
287.109	97.2034	287.109	96.616	287.109	97.6719	287.109	96.343	287.109	94.8575	287.109	96.74
297.363	97.7062	297.363	96.6086	297.363	98.0826	297.363	96.7338	297.363	95.3822	297.363	97.1195
307.617	98.2136	307.617	96.5257	307.617	98.2301	307.617	96.5204	307.617	95.1452	307.617	97.1414
319.336	98.2626	319.336	96.5805	319.336	98.3132	319.336	96.3998	319.336	94.4924	319.336	97.0992
329.59	97.7291	329.59	96.0696	329.59	97.7865	329.59	96.1733	329.59	94.3716	329.59	96.6999
341.309	97.9142	341.309	96.4869	341.309	97.9924	341.309	96.0859	341.309	94.2312	341.309	96.8041
353.027	97.7975	353.027	96.26	353.027	97.9195	353.027	96.1532	353.027	94.2355	353.027	96.7598
366.211	97.8888	366.211	96.6096	366.211	98.1112	366.211	96.223	366.211	93.7732	366.211	96.8734
379.395	98.5352	379.395	97.2816	379.395	98.4787	379.395	96.7549	379.395	94.3487	379.395	97.3824
392.578	97.8676	392.578	96.6136	392.578	97.7482	392.578	95.8665	392.578	93.4841	392.578	96.6091
405.762	97.4824	405.762	96.5861	405.762	97.571	405.762	95.6055	405.762	93.5814	405.762	96.4071
420.41	97.4557	420.41	96.7581	420.41	97.6298	420.41	95.3082	420.41	93.1493	420.41	96.3277
435.059	97.5417	435.059	96.4084	435.059	97.4329	435.059	95.2678	435.059	93.1367	435.059	96.2136
451.172	98.324	451.172	96.4243	451.172	98.3717	451.172	95.6423	451.172	93.2426	451.172	96.8079
465.82	98.1523	465.82	96.5021	465.82	98.1772	465.82	95.4399	465.82	92.1273	465.82	96.6023
483.398	98.0922	483.398	97.2785	483.398	98.1599	483.398	95.4997	483.398	92.6646	483.398	96.7213
499.512	97.7241	499.512	96.4391	499.512	97.6138	499.512	94.6268	499.512	92.6526	499.512	96.1005
517.09	98.0585	517.09	96.6894	517.09	97.9299	517.09	93.9624	517.09	92.4107	517.09	96.1348
536.133	97.5975	536.133	95.1672	536.133	98.136	536.133	93.9985	536.133	90.7331	536.133	95.9083
555.176	98.3308	555.176	95.01	555.176	98.3004	555.176	94.4672	555.176	91.2498	555.176	96.234
574.219	98.4946	574.219	94.9734	574.219	98.0978	574.219	93.6155	574.219	90.5407	574.219	95.9449
594.727	97.8213	594.727	94.1234	594.727	97.7827	594.727	92.7466	594.727	89.1578	594.727	95.355
615.234	97.5093	615.234	94.3319	615.234	97.5977	615.234	92.4226	615.234	88.0216	615.234	95.1276
637.207	97.6413	637.207	94.5809	637.207	97.2102	637.207	91.798	637.207	87.6572	637.207	94.8672
659.18	96.4278	659.18	93.868	659.18	96.4245	659.18	91.0576	659.18	85.9834	659.18	93.9905
682.617	97.0377	682.617	93.4837	682.617	97.4624	682.617	91.5659	682.617	87.7035	682.617	94.7147
707.52	97.4473	707.52	94.3162	707.52	97.3804	707.52	92.1883	707.52	87.4624	707.52	94.9507
732.422	96.4225	732.422	94.2875	732.422	96.8587	732.422	91.5577	732.422	87.0422	732.422	94.3633
757.324	97.2483	757.324	94.7939	757.324	97.4309	757.324	92.5026	757.324	88.292	757.324	95.0686
785.156	96.563	785.156	95.2425	785.156	97.0058	785.156	92.8043	785.156	88.3832	785.156	94.8756
811.523	96.8319	811.523	95.5003	811.523	97.2121	811.523	93.4178	811.523	89.3478	811.523	95.2203
840.82	96.9122	840.82	96.1731	840.82	97.5826	840.82	94.0508	840.82	88.8671	840.82	95.6279
870.117	96.4852	870.117	94.7094	870.117	98.0041	870.117	94.9352	870.117	90.8441	870.117	95.9035
900.879	97.3404	900.879	95.5789	900.879	98.3518	900.879	95.6962	900.879	90.4621	900.879	96.4743
933.105	96.9309	933.105	95.4482	933.105	98.3494	933.105	96.0558	933.105	91.5881	933.105	96.563
965.332	97.5591	965.332	95.4225	965.332	98.5134	965.332	96.189	965.332	90.935	965.332	96.7341
1,000.49	96.9893	1,000.49	95.4293	1,000.49	98.5263	1,000.49	96.3052	1,000.49	91.0849	1,000.49	96.7099
1,035.64	97.5828	1,035.64	95.187	1,035.64	98.5151	1,035.64	96.1741	1,035.64	90.2872	1,035.64	96.6951
1,072.27	97.0704	1,072.27	95.1402	1,072.27	98.2169	1,072.27	95.8443	1,072.27	89.4749	1,072.27	96.3647
1,108.89	97.242	1,108.89	94.8516	1,108.89	98.1925	1,108.89	95.3917	1,108.89	89.373	1,108.89	96.2021
1,148.44	97.1216	1,148.44	94.7157	1,148.44	97.8854	1,148.44	94.8046	1,148.44	87.9544	1,148.44	95.8272
1,189.45	96.8878	1,189.45	92.9996	1,189.45	97.7144	1,189.45	95.0901	1,189.45	88.8521	1,189.45	95.6992
1,230.47	96.6791	1,230.47	93.9174	1,230.47	97.907	1,230.47	95.1955	1,230.47	88.4346	1,230.47	95.8399
1,274.41	96.2411	1,274.41	94.5421	1,274.41	98.0418	1,274.41	95.1656	1,274.41	88.9491	1,274.41	95.8919
1,319.82	96.471	1,319.82	93.1349	1,319.82	97.8899	1,319.82	94.9082	1,319.82	89.1696	1,319.82	95.6723
1,366.7	96.2985	1,366.7	93.3498	1,366.7	97.3558	1,366.7	94.5427	1,366.7	87.8037	1,366.7	95.2768
1,413.57	95.2539	1,413.57	93.6474	1,413.57	96.8873	1,413.57	93.4274	1,413.57	88.3101	1,413.57	94.6147
1,463.38	94.7035	1,463.38	93.4091	1,463.38	96.2538	1,463.38	93.0196	1,463.38	87.1048	1,463.38	94.0828
1,516.11	94.0344	1,516.11	93.0005	1,516.11	95.6011	1,516.11	92.7794	1,516.11	86.8168	1,516.11	93.5889
1,568.85	93.338	1,568.85	92.6821	1,568.85	95.4369	1,568.85	92.6625	1,568.85	86.6164	1,568.85	93.3592
1,624.51	92.623	1,624.51	91.8092	1,624.51	96.4538	1,624.51	93.2487	1,624.51	86.5456	1,624.51	93.8752
1,681.64	92.5036	1,681.64	90.8445	1,681.64	97.6563	1,681.64	94.0152	1,681.64	87.009	1,681.64	94.687
1,741.7	93.3564	1,741.7	87.5259	1,741.7	97.9149	1,741.7	94.1802	1,741.7	86.646	1,741.7	94.8306
1,803.22	92.8537	1,803.22	85.4591	1,803.22	97.5298	1,803.22	93.8874	1,803.22	87.7569	1,803.22	94.4681
1,866.21	93.1387	1,866.21	85.4133	1,866.21	96.9132	1,866.21	92.7316	1,866.21	87.1039	1,866.21	93.7678
1,932.13	91.4816	1,932.13	85.3767	1,932.13	96.7133	1,932.13	92.6867	1,932.13	86.27	1,932.13	93.4794
1,999.51	92.0579	1,999.51	88.573	1,999.51	97.9337	1,999.51	93.5152	1,999.51	86.6892	1,999.51	94.5626
2,069.82	92.4165	2,069.82	85.1282	2,069.82	98.0657	2,069.82	93.3209	2,069.82	87.731	2,069.82	94.5609
2,143.07	92.4832	2,143.07	81.4467	2,143.07	98.5492	2,143.07	93.3977	2,143.07	87.0414	2,143.07	94.8396
2,219.24	91.9392	2,219.24	89.0347	2,219.24	97.8979	2,219.24	92.3134	2,219.24	85.9412	2,219.24	94.2037
2,296.88	90.2929	2,296.88	92.5731	2,296.88	97.2556	2,296.88	91.4923	2,296.88	87.1732	2,296.88	93.7397
2,378.91	93.0907	2,378.91	93.6735	2,378.91	98.3839	2,378.91	92.746	2,378.91	84.5801	2,378.91	94.9368
2,462.4	92.4667	2,462.4	91.0952	2,462.4	99.0586	2,462.4	93.4385	2,462.4	85.1066	2,462.4	95.3225
2,548.83	93.2273	2,548.83	92.2498	2,548.83	99.0727	2,548.83	93.0959	2,548.83	85.0652	2,548.83	95.3562
2,639.65	94.2875	2,639.65	93.0416	2,639.65	98.0983	2,639.65	92.0511	2,639.65	83.4893	2,639.65	94.6572
2,731.93	93.6469	2,731.93	92.4761	2,731.93	97.2216	2,731.93	91.3944	2,731.93	83.4192	2,731.93	93.8861
2,828.61	93.902	2,828.61	91.031	2,828.61	97.661	2,828.61	91.8692	2,828.61	83.8712	2,828.61	94.1838
2,928.22	94.6085	2,928.22	90.4175	2,928.22	98.3907	2,928.22	92.7185	2,928.22	83.7969	2,928.22	94.8657
3,030.76	95.027	3,030.76	90.227	3,030.76	98.5238	3,030.76	92.8378	3,030.76	84.68	3,030.76	95.0221
3,137.7	95.0484	3,137.7	90.704	3,137.7	98.3134	3,137.7	92.8025	3,137.7	84.3231	3,137.7	94.9066
3,249.02	95.3408	3,249.02	91.812	3,249.02	97.6884	3,249.02	92.5226	3,249.02	84.7559	3,249.02	94.5832
3,363.28	94.8478	3,363.28	92.0107	3,363.28	97.1546	3,363.28	92.5205	3,363.28	84.0934	3,363.28	94.2336
3,481.93	95.1225	3,481.93	91.9974	3,481.93	97.1954	3,481.93	92.6384	3,481.93	84.4531	3,481.93	94.3262
3,604.98	94.8267	3,604.98	92.2606	3,604.98	97.4728	3,604.98	93.4293	3,604.98	84.6474	3,604.98	94.6689
3,732.42	93.847	3,732.42	91.8222	3,732.42	98.1783	3,732.42	93.9686	3,732.42	84.6792	3,732.42	95.0763
3,864.26	95.0014	3,864.26	91.7463	3,864.26	97.6798	3,864.26	93.243	3,864.26	83.9506	3,864.26	94.7066
4,000.49	94.6189	4,000.49	91.2597	4,000.49	97.9067	4,000.49	93.0362	4,000.49	82.8326	4,000.49	94.6939
4,141.11	94.6931	4,141.11	91.705	4,141.11	98.9171	4,141.11	93.3561	4,141.11	83.0283	4,141.11	95.3972
4,287.6	95.3539	4,287.6	91.5226	4,287.6	98.9618	4,287.6	93.2932	4,287.6	83.663	4,287.6	95.4745
4,438.48	95.4752	4,438.48	91.6954	4,438.48	98.9756	4,438.48	93.1972	4,438.48	83.3264	4,438.48	95.4802
4,595.21	95.491	4,595.21	90.9442	4,595.21	98.349	4,595.21	92.7804	4,595.21	83.0284	4,595.21	94.977
4,756.35	95.4567	4,756.35	91.4865	4,756.35	99.2693	4,756.35	93.0314	4,756.35	82.7633	4,756.35	95.6086
4,924.8	94.7471	4,924.8	90.1003	4,924.8	99.3221	4,924.8	93.2545	4,924.8	83.77	4,924.8	95.5711
5,097.66	95.516	5,097.66	90.0301	5,097.66	98.405	5,097.66	92.8775	5,097.66	83.1962	5,097.66	94.9996
5,277.83	95.4323	5,277.83	89.891	5,277.83	98.3667	5,277.83	93.0646	5,277.83	81.1718	5,277.83	94.9941
5,463.87	95.0349	5,463.87	90.05	5,463.87	98.2052	5,463.87	93.1047	5,463.87	81.4933	5,463.87	94.8684
5,657.23	94.349	5,657.23	90.0444	5,657.23	98.0079	5,657.23	92.8605	5,657.23	81.3812	5,657.23	94.6112
5,856.45	93.865	5,856.45	89.6086	5,856.45	97.2549	5,856.45	92.1617	5,856.45	79.4036	5,856.45	93.9095
6,062.99	94.1872	6,062.99	89.4091	6,062.99	97.9471	6,062.99	92.3585	6,062.99	78.5795	6,062.99	94.3962
6,276.86	95.5058	6,276.86	89.8273	6,276.86	97.4851	6,276.86	91.7593	6,276.86	79.0286	6,276.86	94.1757
6,498.05	95.6615	6,498.05	90.088	6,498.05	97.9089	6,498.05	91.4903	6,498.05	79.8983	6,498.05	94.4082
6,726.56	94.0928	6,726.56	89.2791	6,726.56	98.0385	6,726.56	91.6869	6,726.56	80.7503	6,726.56	94.2952
6,963.87	94.1147	6,963.87	89.3329	6,963.87	97.8408	6,963.87	91.895	6,963.87	80.5905	6,963.87	94.2199
7,209.96	94.6997	7,209.96	89.2438	7,209.96	98.2858	7,209.96	92.4034	7,209.96	81.5734	7,209.96	94.6793
7,464.84	94.9434	7,464.84	89.8953	7,464.84	97.9674	7,464.84	92.0298	7,464.84	78.9219	7,464.84	94.4429
7,727.05	95.1191	7,727.05	89.8709	7,727.05	98.5066	7,727.05	92.5102	7,727.05	79.5353	7,727.05	94.9022
7,999.51	95.8216	7,999.51	90.2921	7,999.51	98.326	7,999.51	91.9476	7,999.51	78.8847	7,999.51	94.7808
8,282.23	96.5125	8,282.23	90.0713	8,282.23	98.3388	8,282.23	92.1875	8,282.23	78.7395	8,282.23	94.9357
8,573.73	96.6187	8,573.73	89.9127	8,573.73	98.457	8,573.73	91.7881	8,573.73	79.0564	8,573.73	94.9413
8,876.95	95.701	8,876.95	89.7843	8,876.95	98.3555	8,876.95	91.4312	8,876.95	78.3216	8,876.95	94.661
9,188.96	94.8379	9,188.96	89.5514	9,188.96	97.8973	9,188.96	91.0313	9,188.96	77.2511	9,188.96	94.1638
9,514.16	95.7198	9,514.16	89.3688	9,514.16	98.1575	9,514.16	90.7932	9,514.16	75.1194	9,514.16	94.4049
9,849.61	96.402	9,849.61	88.8295	9,849.61	97.8367	9,849.61	90.381	9,849.61	76.1792	9,849.61	94.237
10,196.8	96.7267	10,196.8	88.3922	10,196.8	98.0884	10,196.8	90.2708	10,196.8	75.7018	10,196.8	94.4249
10,555.7	96.436	10,555.7	87.774	10,555.7	97.9292	10,555.7	89.6116	10,555.7	75.1741	10,555.7	94.156
10,927.7	95.9002	10,927.7	87.6039	10,927.7	98.1081	10,927.7	89.1988	10,927.7	74.7703	10,927.7	94.1165
11,313	95.1751	11,313	87.6349	11,313	98.0697	11,313	89.0287	11,313	74.7463	11,313	93.9515
11,712.9	95.4924	11,712.9	87.7635	11,712.9	98.1547	11,712.9	89.1103	11,712.9	75.0743	11,712.9	94.074
12,126	96.0449	12,126	87.6359	12,126	98.235	12,126	89.2148	12,126	74.0722	12,126	94.2295
12,553.7	96.416	12,553.7	87.6327	12,553.7	98.3102	12,553.7	89.3126	12,553.7	74.731	12,553.7	94.3595
12,996.1	96.1816	12,996.1	87.4656	12,996.1	98.2851	12,996.1	89.3824	12,996.1	75.2234	12,996.1	94.3053
13,454.6	95.4758	13,454.6	87.486	13,454.6	98.0723	13,454.6	89.4223	13,454.6	75.5264	13,454.6	94.0481
13,929.2	95.0856	13,929.2	87.4148	13,929.2	97.826	13,929.2	89.5964	13,929.2	74.9197	13,929.2	93.8415
14,419.9	95.73	14,419.9	87.1094	14,419.9	97.8114	14,419.9	89.7299	14,419.9	75.2963	14,419.9	93.9495
14,928.2	95.3389	14,928.2	86.3078	14,928.2	97.8997	14,928.2	89.5629	14,928.2	76.6439	14,928.2	93.9038
15,455.6	95.7303	15,455.6	86.4734	15,455.6	97.8835	15,455.6	90.358	15,455.6	77.0996	15,455.6	94.0829
16,000.5	95.3364	16,000.5	86.1808	16,000.5	98.3011	16,000.5	90.3153	16,000.5	76.6717	16,000.5	94.2843
16,564.5	95.6819	16,564.5	86.5508	16,564.5	98.1323	16,564.5	90.112	16,564.5	76.083	16,564.5	94.199
17,148.9	95.3015	17,148.9	87.1486	17,148.9	97.4994	17,148.9	90.1519	17,148.9	76.2947	17,148.9	93.7437
17,752.4	94.5349	17,752.4	87.6172	17,752.4	96.2758	17,752.4	89.9216	17,752.4	75.4819	17,752.4	92.8294
18,379.4	94.2083	18,379.4	87.6943	18,379.4	95.0666	18,379.4	89.4676	18,379.4	74.3915	18,379.4	91.9862
19,026.9	94.224	19,026.9	87.6735	19,026.9	94.1435	19,026.9	89.0062	19,026.9	73.5701	19,026.9	91.3996
19,697.8	93.2679	19,697.8	87.157	19,697.8	93.3078	19,697.8	88.2325	19,697.8	72.1906	19,697.8	90.5668
19,999.5	92.7817	19,999.5	86.2783	19,999.5	92.7914	19,999.5	87.5843	19,999.5	70.8398	19,999.5	90.0079
