"CEA2034"													
"On Axis"		"Listening Window"		"Early Reflections"		"Sound Power"		"Sound Power DI"		"Early Reflections DI"		"DI offset"	
"Frequency [Hz]"	"Sound Pessure Level [dB]  / [2.83V 1m] "	"Frequency [Hz]"	"Sound Pessure Level [dB]  / [2.83V 1m] "	"Frequency [Hz]"	"Sound Pessure Level [dB]  / [2.83V 1m] "	"Frequency [Hz]"	"Sound Pessure Level [dB]  / [2.83V 1m] "	"Frequency [Hz]"	"Sound Pessure Level [dB]  / [2.83V 1m] "	"Frequency [Hz]"	"Sound Pessure Level [dB]  / [2.83V 1m] "	"Frequency [Hz]"	"Sound Pessure Level [dB]  / [2.83V 1m] "
20.5078	63.8128	20.5078	63.859	20.5078	64.1191	20.5078	65.1111	20.5078	48.7274	20.5078	49.7193	20.5078	49.9794
21.9727	67.944	21.9727	67.9599	21.9727	68.0473	21.9727	68.769	21.9727	49.1703	21.9727	49.8921	21.9727	49.9794
23.4375	69.7468	23.4375	69.764	23.4375	69.8156	23.4375	70.386	23.4375	49.3573	23.4375	49.9278	23.4375	49.9794
24.9023	72.0654	24.9023	72.076	24.9023	72.0709	24.9023	72.4639	24.9023	49.5915	24.9023	49.9846	24.9023	49.9794
26.3672	74.5769	26.3672	74.5779	26.3672	74.5303	26.3672	74.8439	26.3672	49.7133	26.3672	50.027	26.3672	49.9794
27.832	75.3863	27.832	75.3873	27.832	75.2982	27.832	75.5434	27.832	49.8233	27.832	50.0685	27.832	49.9794
29.2969	77.8098	29.2969	77.8045	29.2969	77.7278	29.2969	77.9522	29.2969	49.8318	29.2969	50.0561	29.2969	49.9794
30.7617	79.3851	30.7617	79.3736	30.7617	79.2287	30.7617	79.3398	30.7617	50.0132	30.7617	50.1243	30.7617	49.9794
32.2266	80.4519	32.2266	80.4433	32.2266	80.3309	32.2266	80.4685	32.2266	49.9542	32.2266	50.0918	32.2266	49.9794
33.6914	81.6708	33.6914	81.6563	33.6914	81.5009	33.6914	81.5519	33.6914	50.0838	33.6914	50.1348	33.6914	49.9794
35.1562	82.4626	35.1562	82.4475	35.1562	82.2911	35.1562	82.325	35.1562	50.1018	35.1562	50.1358	35.1562	49.9794
36.6211	83.1329	36.6211	83.1164	36.6211	82.9591	36.6211	82.9827	36.6211	50.113	36.6211	50.1367	36.6211	49.9794
38.0859	83.5435	38.0859	83.5226	38.0859	83.3288	38.0859	83.2918	38.0859	50.2102	38.0859	50.1732	38.0859	49.9794
39.5508	84.0597	39.5508	84.0382	39.5508	83.8506	39.5508	83.8079	39.5508	50.2097	39.5508	50.167	39.5508	49.9794
41.0156	84.2584	41.0156	84.2341	41.0156	84.0249	41.0156	83.9508	41.0156	50.2627	41.0156	50.1886	41.0156	49.9794
42.4805	84.6369	42.4805	84.6109	42.4805	84.3933	42.4805	84.2999	42.4805	50.2904	42.4805	50.197	42.4805	49.9794
43.9453	84.8285	43.9453	84.8015	43.9453	84.5797	43.9453	84.4757	43.9453	50.3052	43.9453	50.2012	43.9453	49.9794
45.4102	85.0768	45.4102	85.0471	45.4102	84.8058	45.4102	84.665	45.4102	50.3615	45.4102	50.2207	45.4102	49.9794
46.875	85.3161	46.875	85.2872	46.875	85.0525	46.875	84.9181	46.875	50.3485	46.875	50.2141	46.875	49.9794
48.3398	85.5619	48.3398	85.5296	48.3398	85.2796	48.3398	85.1264	48.3398	50.3826	48.3398	50.2294	48.3398	49.9794
51.2695	86.0097	51.2695	85.9742	51.2695	85.7002	51.2695	85.4937	51.2695	50.4599	51.2695	50.2534	51.2695	49.9794
52.7344	86.0388	52.7344	86.0014	52.7344	85.7151	52.7344	85.4893	52.7344	50.4914	52.7344	50.2657	52.7344	49.9794
54.1992	86.2656	54.1992	86.2274	54.1992	85.9367	54.1992	85.7	54.1992	50.5068	54.1992	50.2701	54.1992	49.9794
55.6641	86.4752	55.6641	86.4358	55.6641	86.1417	55.6641	85.9046	55.6641	50.5106	55.6641	50.2735	55.6641	49.9794
58.5938	86.9469	58.5938	86.9072	58.5938	86.617	58.5938	86.393	58.5938	50.4936	58.5938	50.2695	58.5938	49.9794
60.0586	87.1251	60.0586	87.0832	60.0586	86.7853	60.0586	86.5549	60.0586	50.5077	60.0586	50.2773	60.0586	49.9794
62.9883	87.5315	62.9883	87.4853	62.9883	87.161	62.9883	86.8952	62.9883	50.5695	62.9883	50.3037	62.9883	49.9794
64.4531	87.689	64.4531	87.6412	64.4531	87.3106	64.4531	87.0403	64.4531	50.5803	64.4531	50.3101	64.4531	49.9794
67.3828	88.0383	67.3828	87.9854	67.3828	87.6222	67.3828	87.319	67.3828	50.6458	67.3828	50.3426	67.3828	49.9794
68.8477	88.2679	68.8477	88.2133	68.8477	87.8405	68.8477	87.5279	68.8477	50.6648	68.8477	50.3522	68.8477	49.9794
71.7773	88.7645	71.7773	88.7057	71.7773	88.3064	71.7773	87.9448	71.7773	50.7403	71.7773	50.3787	71.7773	49.9794
74.707	89.1811	74.707	89.1205	74.707	88.7132	74.707	88.3336	74.707	50.7663	74.707	50.3867	74.707	49.9794
77.6367	89.4797	77.6367	89.4178	77.6367	89.0156	77.6367	88.663	77.6367	50.7342	77.6367	50.3816	77.6367	49.9794
79.1016	89.6282	79.1016	89.563	79.1016	89.1419	79.1016	88.7689	79.1016	50.7735	79.1016	50.4006	79.1016	49.9794
82.0312	89.9248	82.0312	89.8544	82.0312	89.3998	82.0312	88.9801	82.0312	50.8538	82.0312	50.434	82.0312	49.9794
84.9609	90.1448	84.9609	90.0703	84.9609	89.5836	84.9609	89.1146	84.9609	50.935	84.9609	50.4661	84.9609	49.9794
87.8906	90.1854	87.8906	90.1108	87.8906	89.6341	87.8906	89.2002	87.8906	50.89	87.8906	50.4561	87.8906	49.9794
90.8203	90.2534	90.8203	90.1716	90.8203	89.6714	90.8203	89.2483	90.8203	50.9027	90.8203	50.4796	90.8203	49.9794
95.2148	90.4792	95.2148	90.3927	95.2148	89.8475	95.2148	89.3443	95.2148	51.0278	95.2148	50.5247	95.2148	49.9794
98.1445	90.3796	98.1445	90.2861	98.1445	89.7088	98.1445	89.1645	98.1445	51.101	98.1445	50.5566	98.1445	49.9794
101.074	90.4018	101.074	90.3004	101.074	89.6882	101.074	89.1269	101.074	51.1529	101.074	50.5915	101.074	49.9794
105.469	90.5753	105.469	90.46	105.469	89.7256	105.469	88.9421	105.469	51.4973	105.469	50.7138	105.469	49.9794
108.398	90.8958	108.398	90.7725	108.398	89.9761	108.398	89.0722	108.398	51.6798	108.398	50.7758	108.398	49.9794
112.793	91.1327	112.793	91.011	112.793	90.2254	112.793	89.311	112.793	51.6794	112.793	50.765	112.793	49.9794
117.188	90.9845	117.188	90.8622	117.188	90.0551	117.188	89.0749	117.188	51.7668	117.188	50.7865	117.188	49.9794
120.117	90.92	120.117	90.795	120.117	89.969	120.117	88.9545	120.117	51.8199	120.117	50.8053	120.117	49.9794
124.512	90.7869	124.512	90.6664	124.512	89.8792	124.512	88.9317	124.512	51.7141	124.512	50.7666	124.512	49.9794
128.906	90.3973	128.906	90.2709	128.906	89.4727	128.906	88.5798	128.906	51.6705	128.906	50.7776	128.906	49.9794
133.301	90.2261	133.301	90.09	133.301	89.2367	133.301	88.2875	133.301	51.7819	133.301	50.8327	133.301	49.9794
139.16	89.969	139.16	89.8238	139.16	88.893	139.16	87.7926	139.16	52.0106	139.16	50.9102	139.16	49.9794
143.555	89.5053	143.555	89.3634	143.555	88.4476	143.555	87.3663	143.555	51.9765	143.555	50.8952	143.555	49.9794
147.949	89.1308	147.949	88.9844	147.949	88.0585	147.949	87.0169	147.949	51.9469	147.949	50.9052	147.949	49.9794
153.809	89.0978	153.809	88.9232	153.809	87.7983	153.809	86.41	153.809	52.4927	153.809	51.1044	153.809	49.9794
159.668	89.2293	159.668	89.0615	159.668	87.9463	159.668	86.4768	159.668	52.5641	159.668	51.0947	159.668	49.9794
165.527	89.0977	165.527	88.9361	165.527	87.8502	165.527	86.413	165.527	52.5025	165.527	51.0653	165.527	49.9794
171.387	88.7558	171.387	88.5906	171.387	87.4904	171.387	86.06	171.387	52.51	171.387	51.0796	171.387	49.9794
177.246	88.0316	177.246	87.8771	177.246	86.8398	177.246	85.4195	177.246	52.4369	177.246	51.0167	177.246	49.9794
183.105	86.9418	183.105	86.7783	183.105	85.7847	183.105	84.6051	183.105	52.1526	183.105	50.9731	183.105	49.9794
188.965	87.2278	188.965	87.0089	188.965	85.7672	188.965	84.4938	188.965	52.4945	188.965	51.2211	188.965	49.9794
196.289	88.9206	196.289	88.6552	196.289	87.0435	196.289	85.2664	196.289	53.3681	196.289	51.591	196.289	49.9794
203.613	88.9845	203.613	88.7453	203.613	87.1589	203.613	84.9434	203.613	53.7814	203.613	51.5659	203.613	49.9794
210.938	89.3415	210.938	89.122	210.938	87.5877	210.938	85.2676	210.938	53.8338	210.938	51.5136	210.938	49.9794
218.262	89.114	218.262	88.921	218.262	87.5305	218.262	85.3552	218.262	53.5452	218.262	51.3698	218.262	49.9794
225.586	90.4774	225.586	90.2467	225.586	88.6614	225.586	86.4227	225.586	53.8035	225.586	51.5648	225.586	49.9794
232.91	90.9118	232.91	90.7132	232.91	89.19	232.91	86.5801	232.91	54.1125	232.91	51.5026	232.91	49.9794
241.699	90.1388	241.699	89.9626	241.699	88.5846	241.699	86.0141	241.699	53.9279	241.699	51.3574	241.699	49.9794
250.488	90.1348	250.488	89.9327	250.488	88.5236	250.488	86.0555	250.488	53.8566	250.488	51.3885	250.488	49.9794
259.277	90.8578	259.277	90.6429	259.277	89.0886	259.277	86.4307	259.277	54.1917	259.277	51.5337	259.277	49.9794
268.066	89.3384	268.066	89.1556	268.066	87.8456	268.066	85.5174	268.066	53.6176	268.066	51.2894	268.066	49.9794
276.855	88.5924	276.855	88.4061	276.855	87.1238	276.855	84.9035	276.855	53.4821	276.855	51.2617	276.855	49.9794
287.109	88.4433	287.109	88.2176	287.109	86.7527	287.109	84.4868	287.109	53.7102	287.109	51.4442	287.109	49.9794
297.363	88.8793	297.363	88.6705	297.363	87.1984	297.363	84.7677	297.363	53.8822	297.363	51.4515	297.363	49.9794
307.617	88.5635	307.617	88.3571	307.617	86.9232	307.617	84.175	307.617	54.1614	307.617	51.4132	307.617	49.9794
319.336	89.1105	319.336	88.8563	319.336	87.2501	319.336	84.439	319.336	54.3967	319.336	51.5856	319.336	49.9794
329.59	88.6907	329.59	88.5052	329.59	87.1028	329.59	84.2328	329.59	54.2517	329.59	51.3818	329.59	49.9794
341.309	88.4611	341.309	88.2234	341.309	86.8377	341.309	84.2095	341.309	53.9933	341.309	51.3651	341.309	49.9794
353.027	88.7356	353.027	88.4801	353.027	86.9472	353.027	84.2179	353.027	54.2416	353.027	51.5123	353.027	49.9794
366.211	88.173	366.211	87.8599	366.211	86.5791	366.211	84.1934	366.211	53.6459	366.211	51.2602	366.211	49.9794
379.395	89.5476	379.395	89.2306	379.395	87.4984	379.395	84.7387	379.395	54.4713	379.395	51.7117	379.395	49.9794
392.578	88.4944	392.578	88.2123	392.578	86.7502	392.578	84.0111	392.578	54.1806	392.578	51.4415	392.578	49.9794
405.762	88.9081	405.762	88.4508	405.762	86.7108	405.762	83.8524	405.762	54.5778	405.762	51.7194	405.762	49.9794
420.41	89.159	420.41	88.6963	420.41	86.5082	420.41	83.4565	420.41	55.2191	420.41	52.1674	420.41	49.9794
435.059	87.9712	435.059	87.5059	435.059	85.293	435.059	82.7966	435.059	54.6886	435.059	52.1923	435.059	49.9794
451.172	88.3666	451.172	88.0137	451.172	86.1917	451.172	83.3474	451.172	54.6456	451.172	51.8014	451.172	49.9794
465.82	88.5073	465.82	87.9681	465.82	85.8829	465.82	83.3412	465.82	54.6063	465.82	52.0646	465.82	49.9794
483.398	88.5247	483.398	88.031	483.398	85.5347	483.398	82.7992	483.398	55.2112	483.398	52.4756	483.398	49.9794
499.512	87.9215	499.512	87.4665	499.512	85.5671	499.512	83.2377	499.512	54.2082	499.512	51.8789	499.512	49.9794
517.09	89.2423	517.09	88.7239	517.09	86.6393	517.09	84.0173	517.09	54.686	517.09	52.064	517.09	49.9794
536.133	88.3633	536.133	87.8686	536.133	85.8315	536.133	83.1392	536.133	54.7088	536.133	52.0164	536.133	49.9794
555.176	87.5784	555.176	87.1997	555.176	85.3815	555.176	82.813	555.176	54.3661	555.176	51.7976	555.176	49.9794
574.219	87.6069	574.219	87.3203	574.219	85.8117	574.219	83.2704	574.219	54.0293	574.219	51.488	574.219	49.9794
594.727	87.353	594.727	87.0307	594.727	85.8355	594.727	83.3814	594.727	53.6287	594.727	51.1746	594.727	49.9794
615.234	88.44	615.234	88.0619	615.234	86.0556	615.234	82.89	615.234	55.1513	615.234	51.9856	615.234	49.9794
637.207	89.32	637.207	88.9616	637.207	87.1306	637.207	84.0202	637.207	54.9209	637.207	51.8104	637.207	49.9794
659.18	88.1251	659.18	87.7883	659.18	86.5485	659.18	83.738	659.18	54.0297	659.18	51.2192	659.18	49.9794
682.617	88.0356	682.617	87.6605	682.617	86.1356	682.617	82.8747	682.617	54.7653	682.617	51.5043	682.617	49.9794
707.52	88.7258	707.52	88.246	707.52	86.2893	707.52	82.956	707.52	55.2694	707.52	51.9361	707.52	49.9794
732.422	87.5055	732.422	87.4083	732.422	86.021	732.422	82.7412	732.422	54.6465	732.422	51.3667	732.422	49.9794
757.324	88.7934	757.324	88.2032	757.324	85.9402	757.324	82.2046	757.324	55.9779	757.324	52.2423	757.324	49.9794
785.156	88.7916	785.156	88.3275	785.156	86.1547	785.156	82.7309	785.156	55.576	785.156	52.1522	785.156	49.9794
811.523	89.1121	811.523	88.5296	811.523	86.4225	811.523	82.9225	811.523	55.5865	811.523	52.0865	811.523	49.9794
840.82	88.7623	840.82	88.0941	840.82	85.8756	840.82	82.3228	840.82	55.7508	840.82	52.1979	840.82	49.9794
870.117	88.3472	870.117	88.0961	870.117	86.3874	870.117	82.9193	870.117	55.1563	870.117	51.6882	870.117	49.9794
900.879	88.331	900.879	87.8592	900.879	86.184	900.879	82.5433	900.879	55.2953	900.879	51.6545	900.879	49.9794
933.105	88.8201	933.105	88.5027	933.105	86.9808	933.105	83.7825	933.105	54.6995	933.105	51.5013	933.105	49.9794
965.332	89.7473	965.332	89.023	965.332	87.1391	965.332	83.592	965.332	55.4104	965.332	51.8633	965.332	49.9794
1,000.49	89.2263	1,000.49	88.8628	1,000.49	87.333	1,000.49	84.1683	1,000.49	54.6739	1,000.49	51.5093	1,000.49	49.9794
1,035.64	88.8248	1,035.64	88.3067	1,035.64	86.8098	1,035.64	83.393	1,035.64	54.8931	1,035.64	51.4763	1,035.64	49.9794
1,072.27	87.5495	1,072.27	87.6894	1,072.27	86.1782	1,072.27	83.272	1,072.27	54.3968	1,072.27	51.4906	1,072.27	49.9794
1,108.89	87.2109	1,108.89	87.0156	1,108.89	85.1312	1,108.89	81.8669	1,108.89	55.1281	1,108.89	51.8637	1,108.89	49.9794
1,148.44	87.4088	1,148.44	86.9917	1,148.44	84.4161	1,148.44	81.0959	1,148.44	55.8752	1,148.44	52.555	1,148.44	49.9794
1,189.45	86.981	1,189.45	86.4683	1,189.45	83.8316	1,189.45	80.373	1,189.45	56.0748	1,189.45	52.6161	1,189.45	49.9794
1,230.47	87.01	1,230.47	86.5577	1,230.47	83.3559	1,230.47	80.0178	1,230.47	56.5193	1,230.47	53.1812	1,230.47	49.9794
1,274.41	85.89	1,274.41	85.7991	1,274.41	82.6445	1,274.41	79.4885	1,274.41	56.29	1,274.41	53.134	1,274.41	49.9794
1,319.82	86.6202	1,319.82	85.7782	1,319.82	81.7961	1,319.82	78.6452	1,319.82	57.1124	1,319.82	53.9615	1,319.82	49.9794
1,366.7	86.7841	1,366.7	86.0272	1,366.7	81.8121	1,366.7	78.5057	1,366.7	57.5009	1,366.7	54.1945	1,366.7	49.9794
1,413.57	86.9568	1,413.57	86.0415	1,413.57	81.9503	1,413.57	78.1397	1,413.57	57.8812	1,413.57	54.0705	1,413.57	49.9794
1,463.38	85.5296	1,463.38	84.9789	1,463.38	81.0447	1,463.38	77.6461	1,463.38	57.3122	1,463.38	53.9136	1,463.38	49.9794
1,516.11	86.115	1,516.11	84.9805	1,516.11	81.0684	1,516.11	77.6529	1,516.11	57.307	1,516.11	53.8915	1,516.11	49.9794
1,568.85	86.3426	1,568.85	85.205	1,568.85	81.2791	1,568.85	77.5866	1,568.85	57.5977	1,568.85	53.9052	1,568.85	49.9794
1,624.51	87.3444	1,624.51	86.4153	1,624.51	82.4811	1,624.51	78.4466	1,624.51	57.9481	1,624.51	53.9137	1,624.51	49.9794
1,681.64	89.1013	1,681.64	88.0864	1,681.64	84.2445	1,681.64	79.8337	1,681.64	58.2321	1,681.64	53.8213	1,681.64	49.9794
1,741.7	90.5233	1,741.7	89.226	1,741.7	85.4525	1,741.7	80.9541	1,741.7	58.2514	1,741.7	53.753	1,741.7	49.9794
1,803.22	91.2196	1,803.22	89.8816	1,803.22	86.2945	1,803.22	81.6776	1,803.22	58.1834	1,803.22	53.5664	1,803.22	49.9794
1,866.21	90.023	1,866.21	89.124	1,866.21	86.0345	1,866.21	81.7241	1,866.21	57.3793	1,866.21	53.0689	1,866.21	49.9794
1,932.13	89.8832	1,932.13	88.7682	1,932.13	85.8615	1,932.13	81.5732	1,932.13	57.1744	1,932.13	52.8861	1,932.13	49.9794
1,999.51	90.3778	1,999.51	89.3722	1,999.51	86.5587	1,999.51	82.2438	1,999.51	57.1077	1,999.51	52.7929	1,999.51	49.9794
2,069.82	90.9893	2,069.82	90.0964	2,069.82	87.241	2,069.82	82.7238	2,069.82	57.352	2,069.82	52.8348	2,069.82	49.9794
2,143.07	91.2227	2,143.07	90.3493	2,143.07	87.409	2,143.07	82.7996	2,143.07	57.5291	2,143.07	52.9196	2,143.07	49.9794
2,219.24	90.3877	2,219.24	89.5255	2,219.24	86.8444	2,219.24	82.3125	2,219.24	57.1924	2,219.24	52.6605	2,219.24	49.9794
2,296.88	89.4132	2,296.88	88.606	2,296.88	86.178	2,296.88	81.983	2,296.88	56.6024	2,296.88	52.4074	2,296.88	49.9794
2,378.91	89.3392	2,378.91	88.5393	2,378.91	85.9479	2,378.91	81.7512	2,378.91	56.7676	2,378.91	52.5709	2,378.91	49.9794
2,462.4	90.3228	2,462.4	89.7133	2,462.4	86.7677	2,462.4	82.4832	2,462.4	57.2095	2,462.4	52.925	2,462.4	49.9794
2,548.83	89.9075	2,548.83	89.6395	2,548.83	86.7352	2,548.83	82.5796	2,548.83	57.0392	2,548.83	52.8836	2,548.83	49.9794
2,639.65	89.0875	2,639.65	88.6366	2,639.65	86.1756	2,639.65	82.1884	2,639.65	56.4276	2,639.65	52.4404	2,639.65	49.9794
2,731.93	88.4176	2,731.93	88.0112	2,731.93	85.7505	2,731.93	81.797	2,731.93	56.1936	2,731.93	52.2401	2,731.93	49.9794
2,828.61	88.7781	2,828.61	88.4667	2,828.61	85.926	2,828.61	81.9303	2,828.61	56.5158	2,828.61	52.5201	2,828.61	49.9794
2,928.22	89.3817	2,928.22	89.1646	2,928.22	86.3671	2,928.22	82.3675	2,928.22	56.7764	2,928.22	52.7768	2,928.22	49.9794
3,030.76	89.7774	3,030.76	89.3431	3,030.76	86.45	3,030.76	82.3977	3,030.76	56.9248	3,030.76	52.8725	3,030.76	49.9794
3,137.7	89.8219	3,137.7	89.2234	3,137.7	86.2396	3,137.7	82.0949	3,137.7	57.1079	3,137.7	52.9633	3,137.7	49.9794
3,249.02	89.6301	3,249.02	88.8034	3,249.02	85.8734	3,249.02	81.6094	3,249.02	57.1733	3,249.02	52.9094	3,249.02	49.9794
3,363.28	89.5848	3,363.28	88.7894	3,363.28	85.6855	3,363.28	81.2787	3,363.28	57.4901	3,363.28	53.0832	3,363.28	49.9794
3,481.93	89.9792	3,481.93	89.2131	3,481.93	85.8847	3,481.93	81.4284	3,481.93	57.7642	3,481.93	53.3078	3,481.93	49.9794
3,604.98	90.3983	3,604.98	89.4845	3,604.98	86.291	3,604.98	81.7752	3,604.98	57.6887	3,604.98	53.1729	3,604.98	49.9794
3,732.42	91.3476	3,732.42	90.259	3,732.42	86.8804	3,732.42	82.178	3,732.42	58.0604	3,732.42	53.358	3,732.42	49.9794
3,864.26	90.5316	3,864.26	89.6591	3,864.26	86.4468	3,864.26	81.9384	3,864.26	57.7001	3,864.26	53.1917	3,864.26	49.9794
4,000.49	89.9618	4,000.49	89.0767	4,000.49	86.0931	4,000.49	81.6471	4,000.49	57.409	4,000.49	52.963	4,000.49	49.9794
4,141.11	90.7161	4,141.11	89.6794	4,141.11	86.371	4,141.11	81.8294	4,141.11	57.8294	4,141.11	53.2877	4,141.11	49.9794
4,287.6	90.5438	4,287.6	89.5574	4,287.6	86.1345	4,287.6	81.6406	4,287.6	57.8962	4,287.6	53.4023	4,287.6	49.9794
4,438.48	90.7211	4,438.48	89.6969	4,438.48	86.2293	4,438.48	81.6143	4,438.48	58.062	4,438.48	53.447	4,438.48	49.9794
4,595.21	89.8984	4,595.21	89.1354	4,595.21	85.6414	4,595.21	81.1411	4,595.21	57.9737	4,595.21	53.4735	4,595.21	49.9794
4,756.35	90.4218	4,756.35	89.5389	4,756.35	86.1277	4,756.35	81.5112	4,756.35	58.0071	4,756.35	53.3906	4,756.35	49.9794
4,924.8	90.2649	4,924.8	89.5856	4,924.8	86.0872	4,924.8	81.434	4,924.8	58.131	4,924.8	53.4778	4,924.8	49.9794
5,097.66	89.7448	5,097.66	88.9334	5,097.66	85.6153	5,097.66	81.0571	5,097.66	57.8557	5,097.66	53.2975	5,097.66	49.9794
5,277.83	90.0869	5,277.83	89.0011	5,277.83	85.7116	5,277.83	81.0072	5,277.83	57.9733	5,277.83	53.269	5,277.83	49.9794
5,463.87	90.0865	5,463.87	89.0387	5,463.87	85.6767	5,463.87	80.9539	5,463.87	58.0643	5,463.87	53.3414	5,463.87	49.9794
5,657.23	90.1842	5,657.23	89.3018	5,657.23	85.8268	5,657.23	81.055	5,657.23	58.2263	5,657.23	53.4545	5,657.23	49.9794
5,856.45	89.4941	5,856.45	88.8002	5,856.45	85.4006	5,856.45	80.7691	5,856.45	58.0105	5,856.45	53.379	5,856.45	49.9794
6,062.99	90.4544	6,062.99	89.6536	6,062.99	86.1747	6,062.99	81.3987	6,062.99	58.2343	6,062.99	53.4582	6,062.99	49.9794
6,276.86	89.8422	6,276.86	89.1643	6,276.86	85.6701	6,276.86	81.0496	6,276.86	58.094	6,276.86	53.4735	6,276.86	49.9794
6,498.05	90.2862	6,498.05	89.4316	6,498.05	85.8886	6,498.05	81.1974	6,498.05	58.2136	6,498.05	53.5224	6,498.05	49.9794
6,726.56	90.7861	6,726.56	89.9986	6,726.56	86.3335	6,726.56	81.5626	6,726.56	58.4155	6,726.56	53.6446	6,726.56	49.9794
6,963.87	90.3741	6,963.87	89.74	6,963.87	86.0045	6,963.87	81.2733	6,963.87	58.4461	6,963.87	53.7149	6,963.87	49.9794
7,209.96	91.1257	7,209.96	90.317	7,209.96	86.5215	7,209.96	81.704	7,209.96	58.5924	7,209.96	53.7749	7,209.96	49.9794
7,464.84	91.0553	7,464.84	90.45	7,464.84	86.5746	7,464.84	81.7677	7,464.84	58.6617	7,464.84	53.8548	7,464.84	49.9794
7,727.05	91.5866	7,727.05	90.7371	7,727.05	86.9038	7,727.05	81.9931	7,727.05	58.7233	7,727.05	53.8127	7,727.05	49.9794
7,999.51	91.8144	7,999.51	91.054	7,999.51	87.1671	7,999.51	82.1928	7,999.51	58.8405	7,999.51	53.8663	7,999.51	49.9794
8,282.23	91.7248	8,282.23	91.0938	8,282.23	87.1809	8,282.23	82.2389	8,282.23	58.8344	8,282.23	53.8923	8,282.23	49.9794
8,573.73	91.5841	8,573.73	90.8884	8,573.73	86.9744	8,573.73	81.9358	8,573.73	58.9319	8,573.73	53.8934	8,573.73	49.9794
8,876.95	90.8214	8,876.95	90.1397	8,876.95	86.2117	8,876.95	81.2017	8,876.95	58.9173	8,876.95	53.9074	8,876.95	49.9794
9,188.96	90.9177	9,188.96	90.2379	9,188.96	86.286	9,188.96	81.162	9,188.96	59.0553	9,188.96	53.9313	9,188.96	49.9794
9,514.16	90.8141	9,514.16	90.1081	9,514.16	86.1291	9,514.16	80.9418	9,514.16	59.1457	9,514.16	53.9584	9,514.16	49.9794
9,849.61	90.3756	9,849.61	89.7241	9,849.61	85.6674	9,849.61	80.4245	9,849.61	59.279	9,849.61	54.0361	9,849.61	49.9794
10,196.8	90.2721	10,196.8	89.6958	10,196.8	85.4662	10,196.8	80.1902	10,196.8	59.4849	10,196.8	54.209	10,196.8	49.9794
10,555.7	90.066	10,555.7	89.5654	10,555.7	85.1621	10,555.7	79.8863	10,555.7	59.6586	10,555.7	54.3827	10,555.7	49.9794
10,927.7	90.2875	10,927.7	89.7746	10,927.7	85.23	10,927.7	79.8775	10,927.7	59.8765	10,927.7	54.524	10,927.7	49.9794
11,313	90.3681	11,313	89.7882	11,313	85.0965	11,313	79.6824	11,313	60.0852	11,313	54.671	11,313	49.9794
11,712.9	90.1595	11,712.9	89.5082	11,712.9	84.7363	11,712.9	79.2198	11,712.9	60.2678	11,712.9	54.7513	11,712.9	49.9794
12,126	89.9822	12,126	89.133	12,126	84.3892	12,126	78.6449	12,126	60.4675	12,126	54.7232	12,126	49.9794
12,553.7	89.5097	12,553.7	88.4112	12,553.7	83.6289	12,553.7	77.7091	12,553.7	60.6815	12,553.7	54.7617	12,553.7	49.9794
12,996.1	88.6773	12,996.1	87.3869	12,996.1	82.4521	12,996.1	76.3897	12,996.1	60.9766	12,996.1	54.9141	12,996.1	49.9794
13,454.6	88.8719	13,454.6	87.3505	13,454.6	82.3865	13,454.6	76.18	13,454.6	61.1499	13,454.6	54.9434	13,454.6	49.9794
13,929.2	90.5358	13,929.2	88.7896	13,929.2	83.7665	13,929.2	77.4876	13,929.2	61.2814	13,929.2	55.0025	13,929.2	49.9794
14,419.9	90.2801	14,419.9	88.1941	14,419.9	83.0884	14,419.9	76.6456	14,419.9	61.5279	14,419.9	55.085	14,419.9	49.9794
14,928.2	87.8976	14,928.2	85.5084	14,928.2	80.2746	14,928.2	73.698	14,928.2	61.7898	14,928.2	55.2132	14,928.2	49.9794
15,455.6	86.9978	15,455.6	84.9097	15,455.6	79.6742	15,455.6	73.0432	15,455.6	61.8459	15,455.6	55.215	15,455.6	49.9794
16,000.5	87.9193	16,000.5	85.7141	16,000.5	80.517	16,000.5	73.8774	16,000.5	61.8161	16,000.5	55.1765	16,000.5	49.9794
16,564.5	89.34	16,564.5	86.6844	16,564.5	81.5698	16,564.5	74.7785	16,564.5	61.8854	16,564.5	55.094	16,564.5	49.9794
17,148.9	89.3717	17,148.9	86.5996	17,148.9	81.4699	17,148.9	74.5663	17,148.9	62.0127	17,148.9	55.1091	17,148.9	49.9794
17,752.4	88.268	17,752.4	85.3115	17,752.4	80.1291	17,752.4	73.0933	17,752.4	62.1976	17,752.4	55.1618	17,752.4	49.9794
18,379.4	88.1722	18,379.4	84.8111	18,379.4	79.5318	18,379.4	72.363	18,379.4	62.4274	18,379.4	55.2586	18,379.4	49.9794
19,026.9	88.0392	19,026.9	84.2152	19,026.9	78.8526	19,026.9	71.4447	19,026.9	62.7499	19,026.9	55.342	19,026.9	49.9794
19,697.8	87.4238	19,697.8	83.1142	19,697.8	77.7809	19,697.8	70.3612	19,697.8	62.7323	19,697.8	55.3127	19,697.8	49.9794
19,999.5	87.5243	19,999.5	82.9294	19,999.5	77.6129	19,999.5	70.298	19,999.5	62.6108	19,999.5	55.2958	19,999.5	49.9794
